Time;MLII;V500:00:00.000;-0.145;-0.06500:00:00.002;-0.145;-0.06500:00:00.005;-0.145;-0.06500:00:00.008;-0.145;-0.06500:00:00.011;-0.145;-0.06500:00:00.013;-0.145;-0.06500:00:00.016;-0.145;-0.06500:00:00.019;-0.145;-0.06500:00:00.022;-0.120;-0.08000:00:00.025;-0.135;-0.08000:00:00.027;-0.145;-0.08500:00:00.030;-0.150;-0.08500:00:00.033;-0.160;-0.07500:00:00.036;-0.155;-0.07000:00:00.038;-0.160;-0.07000:00:00.041;-0.175;-0.06500:00:00.044;-0.180;-0.05500:00:00.047;-0.185;-0.05000:00:00.050;-0.170;-0.05000:00:00.052;-0.155;-0.04000:00:00.055;-0.175;-0.04000:00:00.058;-0.180;-0.05500:00:00.061;-0.190;-0.07500:00:00.063;-0.180;-0.08000:00:00.066;-0.155;-0.08500:00:00.069;-0.135;-0.07000:00:00.072;-0.155;-0.08000:00:00.075;-0.190;-0.08000:00:00.077;-0.205;-0.09000:00:00.080;-0.235;-0.09500:00:00.083;-0.225;-0.09000:00:00.086;-0.245;-0.09500:00:00.088;-0.250;-0.11000:00:00.091;-0.260;-0.12000:00:00.094;-0.275;-0.14500:00:00.097;-0.275;-0.13500:00:00.100;-0.275;-0.10500:00:00.102;-0.265;-0.09500:00:00.105;-0.255;-0.10500:00:00.108;-0.265;-0.12000:00:00.111;-0.275;-0.13500:00:00.113;-0.290;-0.12500:00:00.116;-0.290;-0.12500:00:00.119;-0.290;-0.11500:00:00.122;-0.290;-0.11500:00:00.125;-0.285;-0.12500:00:00.127;-0.295;-0.14000:00:00.130;-0.305;-0.14000:00:00.133;-0.285;-0.13000:00:00.136;-0.275;-0.12500:00:00.138;-0.275;-0.14000:00:00.141;-0.280;-0.14500:00:00.144;-0.285;-0.15000:00:00.147;-0.305;-0.15000:00:00.150;-0.290;-0.13000:00:00.152;-0.300;-0.11500:00:00.155;-0.280;-0.12500:00:00.158;-0.290;-0.13500:00:00.161;-0.300;-0.16000:00:00.163;-0.315;-0.19500:00:00.166;-0.320;-0.20000:00:00.169;-0.335;-0.20500:00:00.172;-0.360;-0.22500:00:00.175;-0.385;-0.25500:00:00.177;-0.385;-0.30000:00:00.180;-0.405;-0.29000:00:00.183;-0.455;-0.23500:00:00.186;-0.485;-0.13000:00:00.188;-0.485;-0.03500:00:00.191;-0.425;0.05000:00:00.194;-0.330;0.12000:00:00.197;-0.220;0.20000:00:00.200;-0.070;0.31000:00:00.202;0.120;0.43500:00:00.205;0.375;0.53500:00:00.208;0.620;0.58000:00:00.211;0.780;0.47500:00:00.213;0.840;0.21000:00:00.216;0.765;-0.08500:00:00.219;0.520;-0.23000:00:00.222;0.170;-0.25000:00:00.225;-0.165;-0.21500:00:00.227;-0.365;-0.18000:00:00.230;-0.435;-0.18500:00:00.233;-0.425;-0.16000:00:00.236;-0.370;-0.15000:00:00.238;-0.330;-0.15000:00:00.241;-0.325;-0.18000:00:00.244;-0.335;-0.18000:00:00.247;-0.345;-0.16000:00:00.250;-0.330;-0.16500:00:00.252;-0.325;-0.17000:00:00.255;-0.315;-0.16500:00:00.258;-0.310;-0.18500:00:00.261;-0.320;-0.18500:00:00.263;-0.335;-0.18500:00:00.266;-0.340;-0.17000:00:00.269;-0.325;-0.16000:00:00.272;-0.345;-0.15500:00:00.275;-0.335;-0.17500:00:00.277;-0.330;-0.19500:00:00.280;-0.335;-0.18500:00:00.283;-0.330;-0.18500:00:00.286;-0.325;-0.17500:00:00.288;-0.330;-0.17500:00:00.291;-0.330;-0.19500:00:00.294;-0.345;-0.19000:00:00.297;-0.355;-0.18000:00:00.300;-0.335;-0.16500:00:00.302;-0.325;-0.17000:00:00.305;-0.305;-0.17000:00:00.308;-0.320;-0.17000:00:00.311;-0.320;-0.19000:00:00.313;-0.330;-0.18500:00:00.316;-0.340;-0.18000:00:00.319;-0.335;-0.17000:00:00.322;-0.340;-0.17500:00:00.325;-0.345;-0.19000:00:00.327;-0.355;-0.20000:00:00.330;-0.355;-0.19500:00:00.333;-0.340;-0.18500:00:00.336;-0.330;-0.17000:00:00.338;-0.330;-0.17000:00:00.341;-0.330;-0.18500:00:00.344;-0.340;-0.19500:00:00.347;-0.350;-0.17500:00:00.350;-0.325;-0.20000:00:00.352;-0.325;-0.18500:00:00.355;-0.330;-0.18000:00:00.358;-0.330;-0.18500:00:00.361;-0.335;-0.20500:00:00.363;-0.335;-0.19000:00:00.366;-0.340;-0.18000:00:00.369;-0.330;-0.18500:00:00.372;-0.340;-0.20000:00:00.375;-0.350;-0.21500:00:00.377;-0.355;-0.20500:00:00.380;-0.350;-0.21000:00:00.383;-0.345;-0.20000:00:00.386;-0.330;-0.18500:00:00.388;-0.320;-0.20500:00:00.391;-0.335;-0.20000:00:00.394;-0.330;-0.21000:00:00.397;-0.345;-0.20500:00:00.400;-0.330;-0.18500:00:00.402;-0.335;-0.18500:00:00.405;-0.335;-0.20000:00:00.408;-0.345;-0.21500:00:00.411;-0.345;-0.22500:00:00.413;-0.355;-0.22000:00:00.416;-0.340;-0.20000:00:00.419;-0.340;-0.20000:00:00.422;-0.335;-0.21500:00:00.425;-0.330;-0.22500:00:00.427;-0.350;-0.23500:00:00.430;-0.350;-0.24500:00:00.433;-0.345;-0.24000:00:00.436;-0.335;-0.24000:00:00.438;-0.335;-0.24000:00:00.441;-0.335;-0.24500:00:00.444;-0.350;-0.26000:00:00.447;-0.355;-0.26000:00:00.450;-0.355;-0.26500:00:00.452;-0.345;-0.26500:00:00.455;-0.345;-0.28000:00:00.458;-0.335;-0.28500:00:00.461;-0.350;-0.29500:00:00.463;-0.360;-0.29500:00:00.466;-0.360;-0.30000:00:00.469;-0.360;-0.29000:00:00.472;-0.365;-0.30000:00:00.475;-0.360;-0.31500:00:00.477;-0.370;-0.31500:00:00.480;-0.385;-0.31500:00:00.483;-0.370;-0.31500:00:00.486;-0.360;-0.31000:00:00.488;-0.355;-0.31000:00:00.491;-0.360;-0.32500:00:00.494;-0.375;-0.33000:00:00.497;-0.375;-0.32500:00:00.500;-0.365;-0.31500:00:00.502;-0.365;-0.30500:00:00.505;-0.360;-0.30500:00:00.508;-0.360;-0.29000:00:00.511;-0.365;-0.29000:00:00.513;-0.370;-0.27500:00:00.516;-0.355;-0.27000:00:00.519;-0.330;-0.24500:00:00.522;-0.325;-0.24000:00:00.525;-0.325;-0.25000:00:00.527;-0.335;-0.25000:00:00.530;-0.340;-0.23500:00:00.533;-0.315;-0.22000:00:00.536;-0.300;-0.19500:00:00.538;-0.300;-0.19000:00:00.541;-0.290;-0.19000:00:00.544;-0.295;-0.19000:00:00.547;-0.290;-0.18000:00:00.550;-0.285;-0.16000:00:00.552;-0.275;-0.14500:00:00.555;-0.255;-0.15000:00:00.558;-0.250;-0.16000:00:00.561;-0.250;-0.16000:00:00.563;-0.265;-0.15500:00:00.566;-0.255;-0.14500:00:00.569;-0.245;-0.14000:00:00.572;-0.230;-0.16000:00:00.575;-0.245;-0.15000:00:00.577;-0.245;-0.17500:00:00.580;-0.255;-0.17000:00:00.583;-0.255;-0.16000:00:00.586;-0.240;-0.16000:00:00.588;-0.250;-0.15000:00:00.591;-0.255;-0.15500:00:00.594;-0.245;-0.16000:00:00.597;-0.255;-0.17000:00:00.600;-0.250;-0.15500:00:00.602;-0.250;-0.15500:00:00.605;-0.265;-0.15000:00:00.608;-0.260;-0.16500:00:00.611;-0.260;-0.17500:00:00.613;-0.265;-0.16500:00:00.616;-0.270;-0.16500:00:00.619;-0.265;-0.16000:00:00.622;-0.260;-0.16000:00:00.625;-0.275;-0.18000:00:00.627;-0.280;-0.17500:00:00.630;-0.290;-0.18500:00:00.633;-0.275;-0.16500:00:00.636;-0.270;-0.15000:00:00.638;-0.260;-0.15000:00:00.641;-0.280;-0.17000:00:00.644;-0.280;-0.18500:00:00.647;-0.285;-0.19500:00:00.650;-0.275;-0.19000:00:00.652;-0.275;-0.19000:00:00.655;-0.265;-0.18500:00:00.658;-0.270;-0.19000:00:00.661;-0.285;-0.21000:00:00.663;-0.290;-0.19500:00:00.666;-0.280;-0.19000:00:00.669;-0.275;-0.18000:00:00.672;-0.285;-0.20500:00:00.675;-0.280;-0.21500:00:00.677;-0.300;-0.22500:00:00.680;-0.300;-0.21000:00:00.683;-0.305;-0.20500:00:00.686;-0.295;-0.19500:00:00.688;-0.300;-0.20000:00:00.691;-0.310;-0.19500:00:00.694;-0.310;-0.21000:00:00.697;-0.305;-0.21500:00:00.700;-0.295;-0.20500:00:00.702;-0.285;-0.18500:00:00.705;-0.285;-0.19500:00:00.708;-0.290;-0.19500:00:00.711;-0.295;-0.22000:00:00.713;-0.310;-0.22000:00:00.716;-0.290;-0.21000:00:00.719;-0.295;-0.21500:00:00.722;-0.300;-0.22000:00:00.725;-0.305;-0.22000:00:00.727;-0.310;-0.22500:00:00.730;-0.325;-0.21000:00:00.733;-0.310;-0.20000:00:00.736;-0.300;-0.21000:00:00.738;-0.290;-0.22500:00:00.741;-0.310;-0.23000:00:00.744;-0.325;-0.22500:00:00.747;-0.330;-0.22000:00:00.750;-0.315;-0.23000:00:00.752;-0.300;-0.21000:00:00.755;-0.305;-0.21500:00:00.758;-0.310;-0.21500:00:00.761;-0.320;-0.23000:00:00.763;-0.330;-0.21500:00:00.766;-0.325;-0.22000:00:00.769;-0.315;-0.20500:00:00.772;-0.310;-0.20500:00:00.775;-0.305;-0.21000:00:00.777;-0.305;-0.21500:00:00.780;-0.310;-0.22500:00:00.783;-0.300;-0.21500:00:00.786;-0.305;-0.21500:00:00.788;-0.290;-0.21500:00:00.791;-0.300;-0.22500:00:00.794;-0.300;-0.22500:00:00.797;-0.305;-0.22500:00:00.800;-0.305;-0.20500:00:00.802;-0.290;-0.19500:00:00.805;-0.280;-0.21000:00:00.808;-0.295;-0.21000:00:00.811;-0.305;-0.21500:00:00.813;-0.315;-0.23500:00:00.816;-0.305;-0.23000:00:00.819;-0.295;-0.22000:00:00.822;-0.290;-0.22000:00:00.825;-0.280;-0.23000:00:00.827;-0.270;-0.22500:00:00.830;-0.275;-0.23000:00:00.833;-0.275;-0.21500:00:00.836;-0.270;-0.19500:00:00.838;-0.250;-0.19500:00:00.841;-0.250;-0.19000:00:00.844;-0.255;-0.20000:00:00.847;-0.225;-0.19500:00:00.850;-0.220;-0.18000:00:00.852;-0.205;-0.17000:00:00.855;-0.200;-0.18000:00:00.858;-0.205;-0.17500:00:00.861;-0.215;-0.19500:00:00.863;-0.230;-0.19500:00:00.866;-0.220;-0.17000:00:00.869;-0.225;-0.17500:00:00.872;-0.225;-0.17500:00:00.875;-0.225;-0.18000:00:00.877;-0.230;-0.18500:00:00.880;-0.235;-0.18500:00:00.883;-0.240;-0.17500:00:00.886;-0.235;-0.17500:00:00.888;-0.220;-0.17500:00:00.891;-0.210;-0.19000:00:00.894;-0.205;-0.20500:00:00.897;-0.245;-0.20000:00:00.900;-0.285;-0.20500:00:00.902;-0.285;-0.20500:00:00.905;-0.300;-0.21500:00:00.908;-0.310;-0.21500:00:00.911;-0.330;-0.22500:00:00.913;-0.330;-0.21500:00:00.916;-0.325;-0.21000:00:00.919;-0.315;-0.20000:00:00.922;-0.320;-0.21500:00:00.925;-0.315;-0.22500:00:00.927;-0.325;-0.24500:00:00.930;-0.340;-0.24500:00:00.933;-0.345;-0.25000:00:00.936;-0.340;-0.22500:00:00.938;-0.340;-0.23000:00:00.941;-0.350;-0.23500:00:00.944;-0.345;-0.24000:00:00.947;-0.355;-0.23500:00:00.950;-0.330;-0.23500:00:00.952;-0.335;-0.22000:00:00.955;-0.330;-0.23000:00:00.958;-0.320;-0.24000:00:00.961;-0.345;-0.24000:00:00.963;-0.355;-0.24500:00:00.966;-0.340;-0.22500:00:00.969;-0.330;-0.22500:00:00.972;-0.325;-0.23500:00:00.975;-0.330;-0.25000:00:00.977;-0.350;-0.27000:00:00.980;-0.365;-0.28000:00:00.983;-0.360;-0.29000:00:00.986;-0.380;-0.30000:00:00.988;-0.425;-0.33000:00:00.991;-0.445;-0.36000:00:00.994;-0.475;-0.35500:00:00.997;-0.510;-0.30500:00:01.000;-0.535;-0.20500:00:01.002;-0.505;-0.08000:00:01.005;-0.415;0.01500:00:01.008;-0.300;0.06500:00:01.011;-0.160;0.11500:00:01.013;-0.015;0.19000:00:01.016;0.235;0.30000:00:01.019;0.490;0.41000:00:01.022;0.720;0.49500:00:01.025;0.875;0.48500:00:01.027;0.940;0.36000:00:01.030;0.905;0.10500:00:01.033;0.755;-0.16500:00:01.036;0.490;-0.35000:00:01.038;0.165;-0.45000:00:01.041;-0.110;-0.47000:00:01.044;-0.270;-0.45000:00:01.047;-0.390;-0.39500:00:01.050;-0.450;-0.34500:00:01.052;-0.475;-0.31000:00:01.055;-0.455;-0.29500:00:01.058;-0.425;-0.28500:00:01.061;-0.390;-0.29500:00:01.063;-0.390;-0.29500:00:01.066;-0.385;-0.28000:00:01.069;-0.390;-0.28500:00:01.072;-0.380;-0.28500:00:01.075;-0.380;-0.28500:00:01.077;-0.380;-0.29000:00:01.080;-0.395;-0.27500:00:01.083;-0.385;-0.27500:00:01.086;-0.385;-0.27500:00:01.088;-0.385;-0.27000:00:01.091;-0.375;-0.28500:00:01.094;-0.395;-0.29500:00:01.097;-0.410;-0.29000:00:01.100;-0.410;-0.27500:00:01.102;-0.400;-0.26500:00:01.105;-0.395;-0.26500:00:01.108;-0.390;-0.27500:00:01.111;-0.405;-0.29500:00:01.113;-0.395;-0.29000:00:01.116;-0.385;-0.28500:00:01.119;-0.375;-0.27000:00:01.122;-0.390;-0.26500:00:01.125;-0.390;-0.27500:00:01.127;-0.405;-0.28000:00:01.130;-0.410;-0.28000:00:01.133;-0.410;-0.27000:00:01.136;-0.390;-0.26500:00:01.138;-0.390;-0.27000:00:01.141;-0.395;-0.27000:00:01.144;-0.405;-0.28000:00:01.147;-0.415;-0.27000:00:01.150;-0.400;-0.26500:00:01.152;-0.410;-0.26500:00:01.155;-0.405;-0.26500:00:01.158;-0.410;-0.27000:00:01.161;-0.415;-0.28500:00:01.163;-0.410;-0.28500:00:01.166;-0.400;-0.26500:00:01.169;-0.400;-0.26500:00:01.172;-0.395;-0.25500:00:01.175;-0.390;-0.27500:00:01.177;-0.405;-0.27500:00:01.180;-0.410;-0.28000:00:01.183;-0.390;-0.27000:00:01.186;-0.390;-0.26500:00:01.188;-0.385;-0.27500:00:01.191;-0.385;-0.28500:00:01.194;-0.410;-0.28000:00:01.197;-0.405;-0.28000:00:01.200;-0.395;-0.27500:00:01.202;-0.390;-0.27500:00:01.205;-0.375;-0.27500:00:01.208;-0.390;-0.28500:00:01.211;-0.395;-0.29500:00:01.213;-0.410;-0.29500:00:01.216;-0.400;-0.27500:00:01.219;-0.390;-0.27500:00:01.222;-0.390;-0.28500:00:01.225;-0.385;-0.29000:00:01.227;-0.405;-0.31500:00:01.230;-0.415;-0.31500:00:01.233;-0.415;-0.30500:00:01.236;-0.400;-0.29000:00:01.238;-0.395;-0.31000:00:01.241;-0.405;-0.32000:00:01.244;-0.415;-0.32000:00:01.247;-0.420;-0.33500:00:01.250;-0.420;-0.33000:00:01.252;-0.410;-0.32500:00:01.255;-0.415;-0.34500:00:01.258;-0.425;-0.35000:00:01.261;-0.420;-0.36500:00:01.263;-0.435;-0.37000:00:01.266;-0.430;-0.35500:00:01.269;-0.430;-0.36000:00:01.272;-0.420;-0.37000:00:01.275;-0.430;-0.39000:00:01.277;-0.450;-0.39500:00:01.280;-0.455;-0.40000:00:01.283;-0.450;-0.39000:00:01.286;-0.435;-0.38500:00:01.288;-0.445;-0.39000:00:01.291;-0.450;-0.40000:00:01.294;-0.455;-0.41000:00:01.297;-0.470;-0.42000:00:01.300;-0.460;-0.40500:00:01.302;-0.455;-0.41000:00:01.305;-0.450;-0.41000:00:01.308;-0.455;-0.40000:00:01.311;-0.470;-0.40500:00:01.313;-0.475;-0.39000:00:01.316;-0.460;-0.38500:00:01.319;-0.450;-0.36500:00:01.322;-0.445;-0.35500:00:01.325;-0.440;-0.34500:00:01.327;-0.435;-0.35500:00:01.330;-0.440;-0.33000:00:01.333;-0.410;-0.29500:00:01.336;-0.395;-0.27500:00:01.338;-0.370;-0.27000:00:01.341;-0.365;-0.26000:00:01.344;-0.360;-0.26500:00:01.347;-0.365;-0.26500:00:01.350;-0.340;-0.24500:00:01.352;-0.325;-0.22500:00:01.355;-0.315;-0.21000:00:01.358;-0.320;-0.21500:00:01.361;-0.330;-0.21500:00:01.363;-0.330;-0.20500:00:01.366;-0.320;-0.19500:00:01.369;-0.310;-0.18500:00:01.372;-0.300;-0.18500:00:01.375;-0.300;-0.19500:00:01.377;-0.320;-0.19500:00:01.380;-0.320;-0.19500:00:01.383;-0.315;-0.18500:00:01.386;-0.305;-0.17000:00:01.388;-0.305;-0.18500:00:01.391;-0.295;-0.19500:00:01.394;-0.320;-0.19500:00:01.397;-0.330;-0.19500:00:01.400;-0.305;-0.18500:00:01.402;-0.310;-0.17500:00:01.405;-0.300;-0.17500:00:01.408;-0.300;-0.18500:00:01.411;-0.320;-0.19500:00:01.413;-0.325;-0.19500:00:01.416;-0.310;-0.19500:00:01.419;-0.305;-0.18000:00:01.422;-0.315;-0.18500:00:01.425;-0.305;-0.19000:00:01.427;-0.315;-0.19500:00:01.430;-0.315;-0.19500:00:01.433;-0.310;-0.19000:00:01.436;-0.295;-0.18500:00:01.438;-0.290;-0.18500:00:01.441;-0.305;-0.19000:00:01.444;-0.310;-0.20000:00:01.447;-0.320;-0.21500:00:01.450;-0.315;-0.19500:00:01.452;-0.300;-0.18500:00:01.455;-0.315;-0.18500:00:01.458;-0.315;-0.18500:00:01.461;-0.315;-0.20000:00:01.463;-0.330;-0.20500:00:01.466;-0.315;-0.19000:00:01.469;-0.320;-0.19000:00:01.472;-0.315;-0.20000:00:01.475;-0.325;-0.20000:00:01.477;-0.335;-0.19500:00:01.480;-0.340;-0.22000:00:01.483;-0.335;-0.20500:00:01.486;-0.335;-0.19000:00:01.488;-0.330;-0.20000:00:01.491;-0.325;-0.22000:00:01.494;-0.345;-0.23000:00:01.497;-0.350;-0.21000:00:01.500;-0.345;-0.20500:00:01.502;-0.335;-0.20000:00:01.505;-0.330;-0.19500:00:01.508;-0.330;-0.22000:00:01.511;-0.345;-0.22500:00:01.513;-0.345;-0.22500:00:01.516;-0.345;-0.21500:00:01.519;-0.320;-0.20500:00:01.522;-0.330;-0.20500:00:01.525;-0.335;-0.21500:00:01.527;-0.340;-0.22500:00:01.530;-0.355;-0.22000:00:01.533;-0.335;-0.22500:00:01.536;-0.330;-0.19500:00:01.538;-0.330;-0.21500:00:01.541;-0.335;-0.22000:00:01.544;-0.355;-0.21500:00:01.547;-0.360;-0.22500:00:01.550;-0.355;-0.21500:00:01.552;-0.350;-0.21000:00:01.555;-0.340;-0.21000:00:01.558;-0.345;-0.22500:00:01.561;-0.345;-0.23000:00:01.563;-0.345;-0.22000:00:01.566;-0.345;-0.21000:00:01.569;-0.330;-0.20500:00:01.572;-0.330;-0.20000:00:01.575;-0.335;-0.20500:00:01.577;-0.345;-0.22000:00:01.580;-0.350;-0.23000:00:01.583;-0.350;-0.21500:00:01.586;-0.340;-0.20500:00:01.588;-0.330;-0.20000:00:01.591;-0.345;-0.23000:00:01.594;-0.345;-0.22000:00:01.597;-0.355;-0.21500:00:01.600;-0.350;-0.20500:00:01.602;-0.340;-0.20000:00:01.605;-0.330;-0.20500:00:01.608;-0.340;-0.22000:00:01.611;-0.340;-0.22000:00:01.613;-0.340;-0.22500:00:01.616;-0.330;-0.20500:00:01.619;-0.335;-0.20000:00:01.622;-0.330;-0.20000:00:01.625;-0.335;-0.21000:00:01.627;-0.345;-0.23000:00:01.630;-0.345;-0.21500:00:01.633;-0.340;-0.20000:00:01.636;-0.330;-0.20000:00:01.638;-0.315;-0.20500:00:01.641;-0.295;-0.21000:00:01.644;-0.300;-0.21500:00:01.647;-0.295;-0.22000:00:01.650;-0.285;-0.20500:00:01.652;-0.275;-0.20000:00:01.655;-0.265;-0.19500:00:01.658;-0.265;-0.20500:00:01.661;-0.265;-0.20500:00:01.663;-0.255;-0.20500:00:01.666;-0.250;-0.18000:00:01.669;-0.240;-0.17000:00:01.672;-0.225;-0.19000:00:01.675;-0.215;-0.19000:00:01.677;-0.240;-0.20000:00:01.680;-0.245;-0.18500:00:01.683;-0.240;-0.16500:00:01.686;-0.245;-0.14500:00:01.688;-0.235;-0.14500:00:01.691;-0.245;-0.17000:00:01.694;-0.250;-0.17500:00:01.697;-0.275;-0.17000:00:01.700;-0.275;-0.16500:00:01.702;-0.265;-0.15000:00:01.705;-0.250;-0.16000:00:01.708;-0.225;-0.17500:00:01.711;-0.220;-0.19000:00:01.713;-0.230;-0.19000:00:01.716;-0.265;-0.18500:00:01.719;-0.270;-0.18500:00:01.722;-0.280;-0.17500:00:01.725;-0.285;-0.19500:00:01.727;-0.305;-0.21500:00:01.730;-0.320;-0.20500:00:01.733;-0.340;-0.20000:00:01.736;-0.330;-0.19500:00:01.738;-0.335;-0.20500:00:01.741;-0.335;-0.21000:00:01.744;-0.355;-0.22000:00:01.747;-0.370;-0.21500:00:01.750;-0.360;-0.21000:00:01.752;-0.345;-0.20500:00:01.755;-0.350;-0.20000:00:01.758;-0.355;-0.21000:00:01.761;-0.365;-0.22000:00:01.763;-0.375;-0.22000:00:01.766;-0.380;-0.22000:00:01.769;-0.370;-0.20000:00:01.772;-0.365;-0.20500:00:01.775;-0.365;-0.21500:00:01.777;-0.380;-0.22500:00:01.780;-0.385;-0.22000:00:01.783;-0.380;-0.21500:00:01.786;-0.375;-0.20500:00:01.788;-0.355;-0.22000:00:01.791;-0.370;-0.22500:00:01.794;-0.390;-0.24000:00:01.797;-0.405;-0.26000:00:01.800;-0.410;-0.28000:00:01.802;-0.435;-0.30000:00:01.805;-0.465;-0.34500:00:01.808;-0.490;-0.37500:00:01.811;-0.520;-0.34500:00:01.813;-0.555;-0.26000:00:01.816;-0.570;-0.12500:00:01.819;-0.525;0.02500:00:01.822;-0.405;0.14500:00:01.825;-0.250;0.26000:00:01.827;-0.090;0.37500:00:01.830;0.120;0.50500:00:01.833;0.410;0.63500:00:01.836;0.690;0.70500:00:01.838;0.885;0.61000:00:01.841;0.960;0.32000:00:01.844;0.850;-0.04500:00:01.847;0.520;-0.25000:00:01.850;0.050;-0.27000:00:01.852;-0.320;-0.24000:00:01.855;-0.500;-0.24000:00:01.858;-0.505;-0.25000:00:01.861;-0.445;-0.25500:00:01.863;-0.415;-0.24500:00:01.866;-0.395;-0.24500:00:01.869;-0.390;-0.24500:00:01.872;-0.395;-0.25500:00:01.875;-0.390;-0.26000:00:01.877;-0.395;-0.26000:00:01.880;-0.405;-0.27000:00:01.883;-0.395;-0.24500:00:01.886;-0.405;-0.24500:00:01.888;-0.390;-0.25000:00:01.891;-0.395;-0.26500:00:01.894;-0.395;-0.27000:00:01.897;-0.410;-0.27000:00:01.900;-0.405;-0.26500:00:01.902;-0.400;-0.26000:00:01.905;-0.400;-0.26000:00:01.908;-0.415;-0.27000:00:01.911;-0.405;-0.28000:00:01.913;-0.420;-0.28000:00:01.916;-0.415;-0.27000:00:01.919;-0.405;-0.25500:00:01.922;-0.405;-0.26500:00:01.925;-0.420;-0.28000:00:01.927;-0.420;-0.29000:00:01.930;-0.435;-0.27500:00:01.933;-0.420;-0.26500:00:01.936;-0.410;-0.25500:00:01.938;-0.410;-0.26000:00:01.941;-0.405;-0.26000:00:01.944;-0.425;-0.28000:00:01.947;-0.430;-0.28000:00:01.950;-0.420;-0.26500:00:01.952;-0.415;-0.26000:00:01.955;-0.410;-0.25500:00:01.958;-0.410;-0.26000:00:01.961;-0.425;-0.27500:00:01.963;-0.420;-0.27000:00:01.966;-0.400;-0.27500:00:01.969;-0.395;-0.26500:00:01.972;-0.400;-0.26500:00:01.975;-0.400;-0.27000:00:01.977;-0.395;-0.28000:00:01.980;-0.415;-0.28500:00:01.983;-0.405;-0.28000:00:01.986;-0.390;-0.25500:00:01.988;-0.400;-0.27000:00:01.991;-0.400;-0.28000:00:01.994;-0.415;-0.29000:00:01.997;-0.425;-0.29000:00:02.000;-0.425;-0.27000:00:02.002;-0.415;-0.27000:00:02.005;-0.415;-0.28500:00:02.008;-0.410;-0.30000:00:02.011;-0.425;-0.30000:00:02.013;-0.425;-0.30000:00:02.016;-0.420;-0.29500:00:02.019;-0.415;-0.27500:00:02.022;-0.400;-0.29500:00:02.025;-0.400;-0.30000:00:02.027;-0.410;-0.31000:00:02.030;-0.425;-0.31000:00:02.033;-0.410;-0.31500:00:02.036;-0.405;-0.31000:00:02.038;-0.395;-0.31000:00:02.041;-0.400;-0.33500:00:02.044;-0.400;-0.34500:00:02.047;-0.405;-0.35500:00:02.050;-0.385;-0.35000:00:02.052;-0.400;-0.34500:00:02.055;-0.390;-0.36000:00:02.058;-0.390;-0.37000:00:02.061;-0.400;-0.37500:00:02.063;-0.415;-0.38500:00:02.066;-0.405;-0.37000:00:02.069;-0.405;-0.37000:00:02.072;-0.410;-0.38500:00:02.075;-0.415;-0.40000:00:02.077;-0.420;-0.41500:00:02.080;-0.420;-0.40500:00:02.083;-0.425;-0.41000:00:02.086;-0.415;-0.39000:00:02.088;-0.415;-0.40500:00:02.091;-0.410;-0.41000:00:02.094;-0.435;-0.42500:00:02.097;-0.430;-0.42000:00:02.100;-0.435;-0.41000:00:02.102;-0.420;-0.40500:00:02.105;-0.420;-0.40000:00:02.108;-0.420;-0.40000:00:02.111;-0.420;-0.40500:00:02.113;-0.425;-0.38500:00:02.116;-0.425;-0.36500:00:02.119;-0.415;-0.34500:00:02.122;-0.395;-0.33500:00:02.125;-0.395;-0.32500:00:02.127;-0.390;-0.31000:00:02.130;-0.375;-0.29500:00:02.133;-0.360;-0.27500:00:02.136;-0.340;-0.25500:00:02.138;-0.335;-0.25000:00:02.141;-0.330;-0.24000:00:02.144;-0.335;-0.24500:00:02.147;-0.335;-0.23000:00:02.150;-0.325;-0.20500:00:02.152;-0.320;-0.20000:00:02.155;-0.305;-0.20000:00:02.158;-0.305;-0.20500:00:02.161;-0.315;-0.21000:00:02.163;-0.310;-0.22000:00:02.166;-0.305;-0.19500:00:02.169;-0.300;-0.19000:00:02.172;-0.300;-0.20000:00:02.175;-0.300;-0.20000:00:02.177;-0.310;-0.21000:00:02.180;-0.310;-0.20000:00:02.183;-0.310;-0.19000:00:02.186;-0.315;-0.17500:00:02.188;-0.300;-0.20000:00:02.191;-0.305;-0.20500:00:02.194;-0.315;-0.21000:00:02.197;-0.320;-0.20000:00:02.200;-0.325;-0.20000:00:02.202;-0.310;-0.18000:00:02.205;-0.305;-0.19000:00:02.208;-0.305;-0.19000:00:02.211;-0.320;-0.20500:00:02.213;-0.325;-0.20500:00:02.216;-0.305;-0.19500:00:02.219;-0.310;-0.18500:00:02.222;-0.295;-0.19000:00:02.225;-0.310;-0.19000:00:02.227;-0.325;-0.21000:00:02.230;-0.330;-0.21000:00:02.233;-0.320;-0.20500:00:02.236;-0.320;-0.20500:00:02.238;-0.320;-0.20000:00:02.241;-0.325;-0.21500:00:02.244;-0.350;-0.22500:00:02.247;-0.350;-0.21000:00:02.250;-0.340;-0.21000:00:02.252;-0.335;-0.21000:00:02.255;-0.330;-0.21500:00:02.258;-0.335;-0.22500:00:02.261;-0.340;-0.22500:00:02.263;-0.360;-0.23000:00:02.266;-0.350;-0.21000:00:02.269;-0.350;-0.21000:00:02.272;-0.355;-0.23000:00:02.275;-0.360;-0.25000:00:02.277;-0.355;-0.25000:00:02.280;-0.365;-0.24500:00:02.283;-0.355;-0.23000:00:02.286;-0.350;-0.21500:00:02.288;-0.340;-0.23000:00:02.291;-0.355;-0.24000:00:02.294;-0.350;-0.24500:00:02.297;-0.365;-0.24500:00:02.300;-0.365;-0.24000:00:02.302;-0.350;-0.21500:00:02.305;-0.355;-0.22500:00:02.308;-0.350;-0.24000:00:02.311;-0.370;-0.24000:00:02.313;-0.380;-0.24500:00:02.316;-0.370;-0.24000:00:02.319;-0.360;-0.23000:00:02.322;-0.365;-0.23500:00:02.325;-0.360;-0.24000:00:02.327;-0.365;-0.23000:00:02.330;-0.380;-0.25000:00:02.333;-0.370;-0.22500:00:02.336;-0.365;-0.21500:00:02.338;-0.350;-0.23000:00:02.341;-0.350;-0.24000:00:02.344;-0.350;-0.25000:00:02.347;-0.370;-0.26500:00:02.350;-0.365;-0.23000:00:02.352;-0.345;-0.22000:00:02.355;-0.345;-0.23500:00:02.358;-0.340;-0.22500:00:02.361;-0.355;-0.23500:00:02.363;-0.365;-0.23500:00:02.366;-0.360;-0.22500:00:02.369;-0.355;-0.22500:00:02.372;-0.355;-0.21500:00:02.375;-0.355;-0.22500:00:02.377;-0.375;-0.23500:00:02.380;-0.385;-0.23000:00:02.383;-0.355;-0.22500:00:02.386;-0.360;-0.22500:00:02.388;-0.355;-0.22500:00:02.391;-0.360;-0.22500:00:02.394;-0.360;-0.23000:00:02.397;-0.370;-0.23000:00:02.400;-0.360;-0.21500:00:02.402;-0.345;-0.21000:00:02.405;-0.355;-0.22500:00:02.408;-0.345;-0.24000:00:02.411;-0.345;-0.23500:00:02.413;-0.345;-0.24000:00:02.416;-0.340;-0.22500:00:02.419;-0.310;-0.21500:00:02.422;-0.305;-0.22000:00:02.425;-0.305;-0.22000:00:02.427;-0.310;-0.23000:00:02.430;-0.305;-0.23000:00:02.433;-0.290;-0.20500:00:02.436;-0.285;-0.20000:00:02.438;-0.275;-0.20500:00:02.441;-0.280;-0.19500:00:02.444;-0.280;-0.21000:00:02.447;-0.275;-0.20500:00:02.450;-0.265;-0.19000:00:02.452;-0.255;-0.18500:00:02.455;-0.245;-0.20000:00:02.458;-0.260;-0.19500:00:02.461;-0.265;-0.20000:00:02.463;-0.275;-0.19000:00:02.466;-0.280;-0.17000:00:02.469;-0.265;-0.14000:00:02.472;-0.270;-0.16500:00:02.475;-0.275;-0.16500:00:02.477;-0.280;-0.18500:00:02.480;-0.275;-0.18000:00:02.483;-0.280;-0.17000:00:02.486;-0.275;-0.15000:00:02.488;-0.265;-0.16500:00:02.491;-0.255;-0.18000:00:02.494;-0.240;-0.20000:00:02.497;-0.260;-0.21000:00:02.500;-0.280;-0.21000:00:02.502;-0.310;-0.18500:00:02.505;-0.310;-0.19000:00:02.508;-0.345;-0.20000:00:02.511;-0.360;-0.21500:00:02.513;-0.380;-0.22000:00:02.516;-0.385;-0.21000:00:02.519;-0.380;-0.19500:00:02.522;-0.370;-0.20500:00:02.525;-0.375;-0.22000:00:02.527;-0.385;-0.22500:00:02.530;-0.390;-0.23000:00:02.533;-0.395;-0.22000:00:02.536;-0.385;-0.21000:00:02.538;-0.385;-0.21000:00:02.541;-0.385;-0.23000:00:02.544;-0.395;-0.23500:00:02.547;-0.405;-0.23000:00:02.550;-0.400;-0.22500:00:02.552;-0.375;-0.21500:00:02.555;-0.375;-0.22000:00:02.558;-0.390;-0.22000:00:02.561;-0.395;-0.23000:00:02.563;-0.415;-0.24000:00:02.566;-0.405;-0.22000:00:02.569;-0.400;-0.22500:00:02.572;-0.390;-0.23500:00:02.575;-0.405;-0.25000:00:02.577;-0.425;-0.28000:00:02.580;-0.460;-0.30500:00:02.583;-0.475;-0.32500:00:02.586;-0.505;-0.34500:00:02.588;-0.510;-0.37500:00:02.591;-0.525;-0.41500:00:02.594;-0.540;-0.42500:00:02.597;-0.600;-0.38500:00:02.600;-0.645;-0.29500:00:02.602;-0.630;-0.18000:00:02.605;-0.575;-0.06500:00:02.608;-0.495;0.03500:00:02.611;-0.385;0.13000:00:02.613;-0.270;0.24000:00:02.616;-0.115;0.37000:00:02.619;0.090;0.49500:00:02.622;0.370;0.61000:00:02.625;0.635;0.65500:00:02.627;0.810;0.54500:00:02.630;0.860;0.23000:00:02.633;0.770;-0.10500:00:02.636;0.475;-0.28000:00:02.638;0.065;-0.28500:00:02.641;-0.305;-0.25500:00:02.644;-0.500;-0.25500:00:02.647;-0.520;-0.26000:00:02.650;-0.475;-0.23000:00:02.652;-0.410;-0.22000:00:02.655;-0.390;-0.24500:00:02.658;-0.390;-0.25500:00:02.661;-0.400;-0.26000:00:02.663;-0.410;-0.25000:00:02.666;-0.405;-0.23500:00:02.669;-0.385;-0.24500:00:02.672;-0.390;-0.24500:00:02.675;-0.395;-0.26000:00:02.677;-0.405;-0.26500:00:02.680;-0.410;-0.26500:00:02.683;-0.405;-0.26000:00:02.686;-0.400;-0.24000:00:02.688;-0.390;-0.24500:00:02.691;-0.395;-0.26000:00:02.694;-0.410;-0.27000:00:02.697;-0.415;-0.27000:00:02.700;-0.410;-0.25500:00:02.702;-0.395;-0.25500:00:02.705;-0.405;-0.25000:00:02.708;-0.410;-0.26500:00:02.711;-0.405;-0.27000:00:02.713;-0.405;-0.27000:00:02.716;-0.410;-0.26500:00:02.719;-0.390;-0.25000:00:02.722;-0.385;-0.24500:00:02.725;-0.390;-0.26500:00:02.727;-0.395;-0.27000:00:02.730;-0.400;-0.26000:00:02.733;-0.400;-0.25500:00:02.736;-0.400;-0.24500:00:02.738;-0.395;-0.25000:00:02.741;-0.395;-0.26000:00:02.744;-0.405;-0.27000:00:02.747;-0.405;-0.26000:00:02.750;-0.400;-0.25500:00:02.752;-0.395;-0.25000:00:02.755;-0.385;-0.25500:00:02.758;-0.375;-0.25500:00:02.761;-0.385;-0.27500:00:02.763;-0.395;-0.27000:00:02.766;-0.390;-0.26500:00:02.769;-0.385;-0.26000:00:02.772;-0.375;-0.26000:00:02.775;-0.385;-0.27500:00:02.777;-0.395;-0.27000:00:02.780;-0.395;-0.26000:00:02.783;-0.385;-0.24500:00:02.786;-0.375;-0.25500:00:02.788;-0.375;-0.26500:00:02.791;-0.385;-0.26500:00:02.794;-0.395;-0.27000:00:02.797;-0.390;-0.26500:00:02.800;-0.390;-0.26000:00:02.802;-0.365;-0.27000:00:02.805;-0.375;-0.26500:00:02.808;-0.385;-0.27000:00:02.811;-0.395;-0.28000:00:02.813;-0.380;-0.28500:00:02.816;-0.385;-0.28000:00:02.819;-0.375;-0.28500:00:02.822;-0.380;-0.29000:00:02.825;-0.390;-0.31000:00:02.827;-0.380;-0.30500:00:02.830;-0.375;-0.30000:00:02.833;-0.375;-0.30000:00:02.836;-0.375;-0.31000:00:02.838;-0.375;-0.32500:00:02.841;-0.380;-0.34000:00:02.844;-0.390;-0.34000:00:02.847;-0.390;-0.32500:00:02.850;-0.365;-0.32000:00:02.852;-0.370;-0.35500:00:02.855;-0.375;-0.36000:00:02.858;-0.385;-0.38000:00:02.861;-0.390;-0.38500:00:02.863;-0.390;-0.37500:00:02.866;-0.375;-0.36500:00:02.869;-0.365;-0.37500:00:02.872;-0.385;-0.38500:00:02.875;-0.380;-0.39000:00:02.877;-0.390;-0.39500:00:02.880;-0.375;-0.38500:00:02.883;-0.375;-0.37500:00:02.886;-0.365;-0.37500:00:02.888;-0.370;-0.37500:00:02.891;-0.385;-0.38000:00:02.894;-0.395;-0.36500:00:02.897;-0.385;-0.34500:00:02.900;-0.385;-0.33500:00:02.902;-0.370;-0.31500:00:02.905;-0.365;-0.31000:00:02.908;-0.370;-0.30500:00:02.911;-0.375;-0.29000:00:02.913;-0.350;-0.27000:00:02.916;-0.335;-0.25500:00:02.919;-0.320;-0.25000:00:02.922;-0.315;-0.24500:00:02.925;-0.320;-0.23500:00:02.927;-0.325;-0.23500:00:02.930;-0.315;-0.22500:00:02.933;-0.295;-0.22000:00:02.936;-0.285;-0.19500:00:02.938;-0.300;-0.21500:00:02.941;-0.295;-0.23000:00:02.944;-0.285;-0.21500:00:02.947;-0.285;-0.20500:00:02.950;-0.280;-0.19500:00:02.952;-0.270;-0.20000:00:02.955;-0.280;-0.19500:00:02.958;-0.290;-0.19500:00:02.961;-0.295;-0.20500:00:02.963;-0.295;-0.19500:00:02.966;-0.290;-0.18000:00:02.969;-0.280;-0.19000:00:02.972;-0.290;-0.20500:00:02.975;-0.295;-0.21000:00:02.977;-0.310;-0.20500:00:02.980;-0.295;-0.18000:00:02.983;-0.285;-0.18500:00:02.986;-0.280;-0.19000:00:02.988;-0.275;-0.20500:00:02.991;-0.295;-0.21500:00:02.994;-0.305;-0.21500:00:02.997;-0.300;-0.21500:00:03.000;-0.295;-0.19000:00:03.002;-0.295;-0.21000:00:03.005;-0.285;-0.20000:00:03.008;-0.300;-0.21500:00:03.011;-0.305;-0.22000:00:03.013;-0.300;-0.22500:00:03.016;-0.295;-0.21500:00:03.019;-0.300;-0.21500:00:03.022;-0.305;-0.23000:00:03.025;-0.315;-0.22500:00:03.027;-0.310;-0.22500:00:03.030;-0.315;-0.21000:00:03.033;-0.295;-0.21000:00:03.036;-0.300;-0.21500:00:03.038;-0.310;-0.23000:00:03.041;-0.330;-0.23500:00:03.044;-0.340;-0.23000:00:03.047;-0.330;-0.22000:00:03.050;-0.320;-0.21500:00:03.052;-0.320;-0.23000:00:03.055;-0.315;-0.23500:00:03.058;-0.325;-0.25000:00:03.061;-0.335;-0.24500:00:03.063;-0.330;-0.24000:00:03.066;-0.315;-0.22000:00:03.069;-0.320;-0.23000:00:03.072;-0.320;-0.23000:00:03.075;-0.330;-0.23500:00:03.077;-0.345;-0.24000:00:03.080;-0.340;-0.23500:00:03.083;-0.335;-0.22000:00:03.086;-0.330;-0.23000:00:03.088;-0.335;-0.24000:00:03.091;-0.345;-0.25500:00:03.094;-0.350;-0.24500:00:03.097;-0.345;-0.23500:00:03.100;-0.340;-0.22000:00:03.102;-0.335;-0.23000:00:03.105;-0.335;-0.24000:00:03.108;-0.330;-0.25000:00:03.111;-0.335;-0.25500:00:03.113;-0.340;-0.24000:00:03.116;-0.335;-0.22500:00:03.119;-0.320;-0.23000:00:03.122;-0.340;-0.23500:00:03.125;-0.340;-0.24000:00:03.127;-0.350;-0.24500:00:03.130;-0.365;-0.23500:00:03.133;-0.360;-0.23000:00:03.136;-0.345;-0.23500:00:03.138;-0.345;-0.24000:00:03.141;-0.350;-0.24500:00:03.144;-0.350;-0.23500:00:03.147;-0.350;-0.23500:00:03.150;-0.340;-0.23000:00:03.152;-0.340;-0.24000:00:03.155;-0.345;-0.23500:00:03.158;-0.345;-0.24500:00:03.161;-0.380;-0.25000:00:03.163;-0.360;-0.23000:00:03.166;-0.360;-0.21000:00:03.169;-0.345;-0.23000:00:03.172;-0.345;-0.23500:00:03.175;-0.350;-0.24500:00:03.177;-0.355;-0.25000:00:03.180;-0.345;-0.24500:00:03.183;-0.330;-0.23000:00:03.186;-0.330;-0.23000:00:03.188;-0.335;-0.23500:00:03.191;-0.335;-0.25000:00:03.194;-0.340;-0.25000:00:03.197;-0.330;-0.24000:00:03.200;-0.320;-0.22500:00:03.202;-0.290;-0.23000:00:03.205;-0.290;-0.23500:00:03.208;-0.300;-0.24000:00:03.211;-0.305;-0.24500:00:03.213;-0.285;-0.24000:00:03.216;-0.280;-0.22500:00:03.219;-0.275;-0.22500:00:03.222;-0.280;-0.23000:00:03.225;-0.275;-0.23000:00:03.227;-0.270;-0.22500:00:03.230;-0.265;-0.20500:00:03.233;-0.250;-0.21000:00:03.236;-0.230;-0.22000:00:03.238;-0.245;-0.20500:00:03.241;-0.240;-0.22000:00:03.244;-0.255;-0.22000:00:03.247;-0.255;-0.21000:00:03.250;-0.245;-0.19000:00:03.252;-0.235;-0.18000:00:03.255;-0.255;-0.18000:00:03.258;-0.265;-0.18500:00:03.261;-0.260;-0.19000:00:03.263;-0.255;-0.19000:00:03.266;-0.270;-0.18500:00:03.269;-0.265;-0.20500:00:03.272;-0.280;-0.20000:00:03.275;-0.255;-0.22000:00:03.277;-0.250;-0.22000:00:03.280;-0.245;-0.22000:00:03.283;-0.265;-0.21000:00:03.286;-0.280;-0.22500:00:03.288;-0.300;-0.22000:00:03.291;-0.315;-0.24000:00:03.294;-0.325;-0.24500:00:03.297;-0.335;-0.23500:00:03.300;-0.345;-0.23000:00:03.302;-0.330;-0.24500:00:03.305;-0.335;-0.24500:00:03.308;-0.345;-0.25000:00:03.311;-0.360;-0.25500:00:03.313;-0.350;-0.23000:00:03.316;-0.340;-0.22500:00:03.319;-0.335;-0.23000:00:03.322;-0.345;-0.24500:00:03.325;-0.360;-0.25500:00:03.327;-0.365;-0.26500:00:03.330;-0.375;-0.25500:00:03.333;-0.370;-0.24500:00:03.336;-0.365;-0.26000:00:03.338;-0.365;-0.25000:00:03.341;-0.380;-0.26000:00:03.344;-0.375;-0.27000:00:03.347;-0.375;-0.24000:00:03.350;-0.365;-0.24500:00:03.352;-0.370;-0.25000:00:03.355;-0.360;-0.25000:00:03.358;-0.370;-0.25000:00:03.361;-0.380;-0.26500:00:03.363;-0.365;-0.25500:00:03.366;-0.360;-0.24500:00:03.369;-0.350;-0.25500:00:03.372;-0.355;-0.26500:00:03.375;-0.370;-0.28000:00:03.377;-0.385;-0.30500:00:03.380;-0.395;-0.32000:00:03.383;-0.430;-0.35000:00:03.386;-0.445;-0.38000:00:03.388;-0.485;-0.39000:00:03.391;-0.515;-0.34500:00:03.394;-0.565;-0.24000:00:03.397;-0.555;-0.11000:00:03.400;-0.475;-0.02000:00:03.402;-0.355;0.04000:00:03.405;-0.220;0.11000:00:03.408;-0.055;0.22000:00:03.411;0.185;0.35000:00:03.413;0.475;0.44000:00:03.416;0.705;0.39500:00:03.419;0.820;0.15500:00:03.422;0.780;-0.17000:00:03.425;0.535;-0.38000:00:03.427;0.145;-0.41000:00:03.430;-0.200;-0.35500:00:03.433;-0.420;-0.32000:00:03.436;-0.500;-0.30500:00:03.438;-0.480;-0.30000:00:03.441;-0.450;-0.29500:00:03.444;-0.410;-0.29500:00:03.447;-0.400;-0.28500:00:03.450;-0.390;-0.30000:00:03.452;-0.390;-0.31000:00:03.455;-0.400;-0.30500:00:03.458;-0.405;-0.30500:00:03.461;-0.425;-0.29500:00:03.463;-0.425;-0.27000:00:03.466;-0.405;-0.27000:00:03.469;-0.395;-0.28500:00:03.472;-0.405;-0.30500:00:03.475;-0.405;-0.31000:00:03.477;-0.415;-0.30000:00:03.480;-0.405;-0.29000:00:03.483;-0.385;-0.27500:00:03.486;-0.390;-0.28500:00:03.488;-0.395;-0.28500:00:03.491;-0.395;-0.30500:00:03.494;-0.395;-0.29000:00:03.497;-0.395;-0.29000:00:03.500;-0.385;-0.28500:00:03.502;-0.390;-0.28500:00:03.505;-0.390;-0.29000:00:03.508;-0.400;-0.30000:00:03.511;-0.425;-0.29500:00:03.513;-0.410;-0.28500:00:03.516;-0.400;-0.27500:00:03.519;-0.395;-0.29000:00:03.522;-0.400;-0.29500:00:03.525;-0.405;-0.27500:00:03.527;-0.425;-0.28500:00:03.530;-0.415;-0.28500:00:03.533;-0.405;-0.26000:00:03.536;-0.405;-0.27000:00:03.538;-0.405;-0.26500:00:03.541;-0.410;-0.28500:00:03.544;-0.415;-0.29000:00:03.547;-0.405;-0.29500:00:03.550;-0.420;-0.28000:00:03.552;-0.405;-0.29000:00:03.555;-0.410;-0.29500:00:03.558;-0.410;-0.30000:00:03.561;-0.420;-0.31000:00:03.563;-0.415;-0.30500:00:03.566;-0.405;-0.29500:00:03.569;-0.395;-0.30000:00:03.572;-0.395;-0.28000:00:03.575;-0.395;-0.29000:00:03.577;-0.400;-0.30500:00:03.580;-0.395;-0.29000:00:03.583;-0.395;-0.28500:00:03.586;-0.405;-0.30500:00:03.588;-0.405;-0.31000:00:03.591;-0.420;-0.31500:00:03.594;-0.435;-0.30500:00:03.597;-0.415;-0.29500:00:03.600;-0.405;-0.29000:00:03.602;-0.395;-0.29500:00:03.605;-0.390;-0.30000:00:03.608;-0.415;-0.30500:00:03.611;-0.405;-0.32500:00:03.613;-0.405;-0.31000:00:03.616;-0.400;-0.30000:00:03.619;-0.395;-0.31000:00:03.622;-0.395;-0.33500:00:03.625;-0.405;-0.34000:00:03.627;-0.420;-0.35000:00:03.630;-0.415;-0.35500:00:03.633;-0.400;-0.34000:00:03.636;-0.395;-0.35000:00:03.638;-0.400;-0.36500:00:03.641;-0.405;-0.38000:00:03.644;-0.425;-0.40000:00:03.647;-0.425;-0.38500:00:03.650;-0.425;-0.38000:00:03.652;-0.420;-0.39000:00:03.655;-0.425;-0.40000:00:03.658;-0.450;-0.40500:00:03.661;-0.445;-0.40500:00:03.663;-0.450;-0.40500:00:03.666;-0.435;-0.41500:00:03.669;-0.445;-0.41500:00:03.672;-0.470;-0.42000:00:03.675;-0.455;-0.41500:00:03.677;-0.460;-0.42500:00:03.680;-0.440;-0.41000:00:03.683;-0.435;-0.39500:00:03.686;-0.425;-0.38500:00:03.688;-0.430;-0.40500:00:03.691;-0.445;-0.39500:00:03.694;-0.450;-0.39500:00:03.697;-0.445;-0.37500:00:03.700;-0.430;-0.37000:00:03.702;-0.420;-0.37500:00:03.705;-0.410;-0.37500:00:03.708;-0.425;-0.37000:00:03.711;-0.420;-0.36000:00:03.713;-0.405;-0.34500:00:03.716;-0.380;-0.32000:00:03.719;-0.370;-0.30500:00:03.722;-0.365;-0.30500:00:03.725;-0.365;-0.30000:00:03.727;-0.365;-0.28500:00:03.730;-0.345;-0.27500:00:03.733;-0.330;-0.26000:00:03.736;-0.315;-0.24500:00:03.738;-0.305;-0.24500:00:03.741;-0.305;-0.25000:00:03.744;-0.320;-0.25500:00:03.747;-0.310;-0.24500:00:03.750;-0.310;-0.23000:00:03.752;-0.305;-0.23500:00:03.755;-0.310;-0.24500:00:03.758;-0.315;-0.25500:00:03.761;-0.320;-0.25500:00:03.763;-0.315;-0.22500:00:03.766;-0.305;-0.23000:00:03.769;-0.305;-0.23500:00:03.772;-0.295;-0.24000:00:03.775;-0.310;-0.25000:00:03.777;-0.320;-0.24500:00:03.780;-0.310;-0.22500:00:03.783;-0.315;-0.21500:00:03.786;-0.295;-0.22000:00:03.788;-0.300;-0.24000:00:03.791;-0.305;-0.25000:00:03.794;-0.300;-0.25500:00:03.797;-0.285;-0.24500:00:03.800;-0.280;-0.24000:00:03.802;-0.290;-0.23500:00:03.805;-0.295;-0.24500:00:03.808;-0.305;-0.25500:00:03.811;-0.325;-0.25000:00:03.813;-0.305;-0.23500:00:03.816;-0.300;-0.23000:00:03.819;-0.300;-0.25000:00:03.822;-0.315;-0.26000:00:03.825;-0.325;-0.27500:00:03.827;-0.335;-0.28000:00:03.830;-0.325;-0.27500:00:03.833;-0.315;-0.26000:00:03.836;-0.320;-0.27000:00:03.838;-0.335;-0.25500:00:03.841;-0.330;-0.26500:00:03.844;-0.340;-0.25500:00:03.847;-0.325;-0.26500:00:03.850;-0.325;-0.26000:00:03.852;-0.320;-0.26500:00:03.855;-0.315;-0.26500:00:03.858;-0.335;-0.27500:00:03.861;-0.335;-0.27000:00:03.863;-0.345;-0.26500:00:03.866;-0.335;-0.25500:00:03.869;-0.325;-0.25500:00:03.872;-0.330;-0.26500:00:03.875;-0.315;-0.27500:00:03.877;-0.335;-0.29000:00:03.880;-0.330;-0.27500:00:03.883;-0.330;-0.26000:00:03.886;-0.330;-0.27000:00:03.888;-0.330;-0.26500:00:03.891;-0.335;-0.27000:00:03.894;-0.340;-0.26500:00:03.897;-0.330;-0.26500:00:03.900;-0.320;-0.25000:00:03.902;-0.315;-0.26500:00:03.905;-0.325;-0.26500:00:03.908;-0.335;-0.27000:00:03.911;-0.355;-0.27000:00:03.913;-0.345;-0.26500:00:03.916;-0.340;-0.25500:00:03.919;-0.335;-0.26000:00:03.922;-0.320;-0.25500:00:03.925;-0.325;-0.27000:00:03.927;-0.350;-0.27000:00:03.930;-0.330;-0.28500:00:03.933;-0.315;-0.26500:00:03.936;-0.315;-0.26000:00:03.938;-0.330;-0.26500:00:03.941;-0.330;-0.27000:00:03.944;-0.335;-0.26500:00:03.947;-0.335;-0.26000:00:03.950;-0.330;-0.25000:00:03.952;-0.330;-0.26500:00:03.955;-0.330;-0.26500:00:03.958;-0.340;-0.27000:00:03.961;-0.340;-0.26500:00:03.963;-0.340;-0.25500:00:03.966;-0.325;-0.24500:00:03.969;-0.325;-0.25500:00:03.972;-0.325;-0.27500:00:03.975;-0.345;-0.27500:00:03.977;-0.350;-0.27500:00:03.980;-0.340;-0.25500:00:03.983;-0.330;-0.25500:00:03.986;-0.320;-0.26000:00:03.988;-0.310;-0.26500:00:03.991;-0.305;-0.28500:00:03.994;-0.305;-0.28000:00:03.997;-0.275;-0.26500:00:04.000;-0.270;-0.26000:00:04.002;-0.255;-0.25500:00:04.005;-0.260;-0.25000:00:04.008;-0.265;-0.25500:00:04.011;-0.260;-0.25000:00:04.013;-0.250;-0.24000:00:04.016;-0.235;-0.23000:00:04.019;-0.235;-0.23500:00:04.022;-0.220;-0.22500:00:04.025;-0.235;-0.23500:00:04.027;-0.235;-0.24000:00:04.030;-0.220;-0.22500:00:04.033;-0.230;-0.21500:00:04.036;-0.225;-0.23500:00:04.038;-0.235;-0.23000:00:04.041;-0.245;-0.22500:00:04.044;-0.255;-0.21500:00:04.047;-0.240;-0.20500:00:04.050;-0.230;-0.20000:00:04.052;-0.230;-0.21000:00:04.055;-0.250;-0.22500:00:04.058;-0.255;-0.23000:00:04.061;-0.250;-0.22500:00:04.063;-0.230;-0.21500:00:04.066;-0.205;-0.21000:00:04.069;-0.195;-0.23500:00:04.072;-0.210;-0.24000:00:04.075;-0.230;-0.25500:00:04.077;-0.270;-0.24500:00:04.080;-0.270;-0.23500:00:04.083;-0.285;-0.23000:00:04.086;-0.285;-0.23500:00:04.088;-0.310;-0.24500:00:04.091;-0.330;-0.27000:00:04.094;-0.340;-0.26000:00:04.097;-0.340;-0.25000:00:04.100;-0.345;-0.24000:00:04.102;-0.350;-0.24000:00:04.105;-0.350;-0.25500:00:04.108;-0.340;-0.26000:00:04.111;-0.355;-0.26500:00:04.113;-0.345;-0.25500:00:04.116;-0.340;-0.24500:00:04.119;-0.340;-0.24500:00:04.122;-0.345;-0.26000:00:04.125;-0.355;-0.25500:00:04.127;-0.370;-0.26000:00:04.130;-0.355;-0.25500:00:04.133;-0.370;-0.24000:00:04.136;-0.345;-0.24000:00:04.138;-0.340;-0.26000:00:04.141;-0.360;-0.26000:00:04.144;-0.380;-0.25000:00:04.147;-0.360;-0.24000:00:04.150;-0.345;-0.23500:00:04.152;-0.350;-0.24000:00:04.155;-0.350;-0.25500:00:04.158;-0.355;-0.27000:00:04.161;-0.380;-0.28500:00:04.163;-0.390;-0.29000:00:04.166;-0.395;-0.31000:00:04.169;-0.425;-0.33000:00:04.172;-0.455;-0.36500:00:04.175;-0.475;-0.37000:00:04.177;-0.510;-0.35000:00:04.180;-0.545;-0.26000:00:04.183;-0.540;-0.13500:00:04.186;-0.495;-0.02000:00:04.188;-0.405;0.03500:00:04.191;-0.295;0.09500:00:04.194;-0.160;0.18500:00:04.197;0.040;0.31500:00:04.200;0.315;0.45000:00:04.202;0.595;0.51500:00:04.205;0.800;0.45000:00:04.208;0.885;0.17500:00:04.211;0.795;-0.18000:00:04.213;0.520;-0.38500:00:04.216;0.130;-0.39500:00:04.219;-0.215;-0.34500:00:04.222;-0.425;-0.31000:00:04.225;-0.500;-0.29000:00:04.227;-0.490;-0.27500:00:04.230;-0.450;-0.26500:00:04.233;-0.400;-0.23500:00:04.236;-0.390;-0.25000:00:04.238;-0.395;-0.26500:00:04.241;-0.395;-0.25500:00:04.244;-0.400;-0.24500:00:04.247;-0.390;-0.24000:00:04.250;-0.380;-0.24000:00:04.252;-0.385;-0.25000:00:04.255;-0.385;-0.26000:00:04.258;-0.400;-0.26500:00:04.261;-0.410;-0.27500:00:04.263;-0.410;-0.25500:00:04.266;-0.390;-0.24000:00:04.269;-0.390;-0.24500:00:04.272;-0.405;-0.26000:00:04.275;-0.405;-0.26000:00:04.277;-0.415;-0.26500:00:04.280;-0.410;-0.25000:00:04.283;-0.395;-0.25000:00:04.286;-0.395;-0.24500:00:04.288;-0.400;-0.25000:00:04.291;-0.415;-0.26500:00:04.294;-0.415;-0.25500:00:04.297;-0.415;-0.25000:00:04.300;-0.400;-0.24500:00:04.302;-0.390;-0.24500:00:04.305;-0.390;-0.25500:00:04.308;-0.410;-0.26000:00:04.311;-0.415;-0.25000:00:04.313;-0.405;-0.24000:00:04.316;-0.395;-0.21500:00:04.319;-0.395;-0.23000:00:04.322;-0.395;-0.25000:00:04.325;-0.405;-0.25000:00:04.327;-0.410;-0.25500:00:04.330;-0.410;-0.24000:00:04.333;-0.400;-0.22000:00:04.336;-0.390;-0.23500:00:04.338;-0.395;-0.23500:00:04.341;-0.410;-0.24000:00:04.344;-0.425;-0.25500:00:04.347;-0.415;-0.24500:00:04.350;-0.405;-0.22500:00:04.352;-0.410;-0.23000:00:04.355;-0.405;-0.23500:00:04.358;-0.415;-0.24000:00:04.361;-0.425;-0.24000:00:04.363;-0.425;-0.24000:00:04.366;-0.410;-0.23000:00:04.369;-0.395;-0.24500:00:04.372;-0.390;-0.25500:00:04.375;-0.400;-0.25000:00:04.377;-0.410;-0.25000:00:04.380;-0.410;-0.23500:00:04.383;-0.400;-0.24000:00:04.386;-0.390;-0.23500:00:04.388;-0.410;-0.25500:00:04.391;-0.420;-0.25500:00:04.394;-0.420;-0.25500:00:04.397;-0.415;-0.25000:00:04.400;-0.415;-0.23500:00:04.402;-0.405;-0.26000:00:04.405;-0.420;-0.25500:00:04.408;-0.415;-0.27000:00:04.411;-0.425;-0.28500:00:04.413;-0.410;-0.28500:00:04.416;-0.400;-0.28000:00:04.419;-0.405;-0.28500:00:04.422;-0.400;-0.28500:00:04.425;-0.400;-0.30500:00:04.427;-0.410;-0.29500:00:04.430;-0.400;-0.28500:00:04.433;-0.395;-0.29000:00:04.436;-0.395;-0.30500:00:04.438;-0.405;-0.32000:00:04.441;-0.410;-0.33500:00:04.444;-0.425;-0.34000:00:04.447;-0.425;-0.31500:00:04.450;-0.410;-0.31500:00:04.452;-0.410;-0.33000:00:04.455;-0.420;-0.34500:00:04.458;-0.430;-0.35000:00:04.461;-0.445;-0.35500:00:04.463;-0.440;-0.36500:00:04.466;-0.435;-0.35500:00:04.469;-0.430;-0.36500:00:04.472;-0.430;-0.37000:00:04.475;-0.450;-0.37500:00:04.477;-0.445;-0.37500:00:04.480;-0.445;-0.37000:00:04.483;-0.435;-0.35500:00:04.486;-0.435;-0.36000:00:04.488;-0.445;-0.34000:00:04.491;-0.440;-0.34000:00:04.494;-0.450;-0.33000:00:04.497;-0.430;-0.31500:00:04.500;-0.430;-0.29000:00:04.502;-0.415;-0.27500:00:04.505;-0.400;-0.26500:00:04.508;-0.400;-0.26000:00:04.511;-0.385;-0.24500:00:04.513;-0.365;-0.22500:00:04.516;-0.335;-0.20500:00:04.519;-0.330;-0.20000:00:04.522;-0.325;-0.19000:00:04.525;-0.330;-0.20000:00:04.527;-0.330;-0.18500:00:04.530;-0.310;-0.17500:00:04.533;-0.295;-0.16000:00:04.536;-0.285;-0.15500:00:04.538;-0.290;-0.16500:00:04.541;-0.290;-0.16000:00:04.544;-0.310;-0.17000:00:04.547;-0.295;-0.15000:00:04.550;-0.285;-0.14500:00:04.552;-0.280;-0.15000:00:04.555;-0.300;-0.14500:00:04.558;-0.290;-0.14500:00:04.561;-0.295;-0.15500:00:04.563;-0.290;-0.15000:00:04.566;-0.280;-0.13500:00:04.569;-0.275;-0.14500:00:04.572;-0.275;-0.14500:00:04.575;-0.290;-0.15000:00:04.577;-0.290;-0.14500:00:04.580;-0.285;-0.14000:00:04.583;-0.270;-0.13000:00:04.586;-0.270;-0.13500:00:04.588;-0.270;-0.14000:00:04.591;-0.275;-0.14500:00:04.594;-0.290;-0.16500:00:04.597;-0.285;-0.15500:00:04.600;-0.275;-0.14500:00:04.602;-0.275;-0.15000:00:04.605;-0.290;-0.16000:00:04.608;-0.295;-0.16000:00:04.611;-0.305;-0.16000:00:04.613;-0.295;-0.14500:00:04.616;-0.295;-0.14000:00:04.619;-0.285;-0.15000:00:04.622;-0.290;-0.16500:00:04.625;-0.300;-0.17000:00:04.627;-0.305;-0.16500:00:04.630;-0.310;-0.16500:00:04.633;-0.295;-0.15000:00:04.636;-0.300;-0.15000:00:04.638;-0.305;-0.16500:00:04.641;-0.310;-0.17000:00:04.644;-0.325;-0.18000:00:04.647;-0.325;-0.16500:00:04.650;-0.315;-0.15500:00:04.652;-0.310;-0.16000:00:04.655;-0.315;-0.16500:00:04.658;-0.315;-0.17500:00:04.661;-0.325;-0.18000:00:04.663;-0.320;-0.16500:00:04.666;-0.310;-0.15000:00:04.669;-0.320;-0.17000:00:04.672;-0.315;-0.17000:00:04.675;-0.330;-0.18500:00:04.677;-0.330;-0.17500:00:04.680;-0.320;-0.17500:00:04.683;-0.310;-0.16000:00:04.686;-0.310;-0.16500:00:04.688;-0.310;-0.17000:00:04.691;-0.330;-0.18000:00:04.694;-0.335;-0.17500:00:04.697;-0.330;-0.17000:00:04.700;-0.320;-0.16000:00:04.702;-0.325;-0.16000:00:04.705;-0.325;-0.17000:00:04.708;-0.330;-0.19000:00:04.711;-0.335;-0.16500:00:04.713;-0.330;-0.16000:00:04.716;-0.325;-0.15500:00:04.719;-0.325;-0.16000:00:04.722;-0.320;-0.15500:00:04.725;-0.325;-0.16500:00:04.727;-0.330;-0.18500:00:04.730;-0.325;-0.17500:00:04.733;-0.315;-0.15000:00:04.736;-0.305;-0.15500:00:04.738;-0.325;-0.16500:00:04.741;-0.315;-0.17000:00:04.744;-0.335;-0.17000:00:04.747;-0.330;-0.16500:00:04.750;-0.310;-0.15000:00:04.752;-0.320;-0.16000:00:04.755;-0.330;-0.17000:00:04.758;-0.330;-0.17500:00:04.761;-0.335;-0.18000:00:04.763;-0.330;-0.15500:00:04.766;-0.330;-0.15000:00:04.769;-0.320;-0.14500:00:04.772;-0.320;-0.16000:00:04.775;-0.330;-0.16500:00:04.777;-0.330;-0.16000:00:04.780;-0.325;-0.16000:00:04.783;-0.315;-0.14500:00:04.786;-0.315;-0.15000:00:04.788;-0.315;-0.15000:00:04.791;-0.330;-0.16000:00:04.794;-0.330;-0.16000:00:04.797;-0.320;-0.15000:00:04.800;-0.315;-0.15000:00:04.802;-0.305;-0.15000:00:04.805;-0.305;-0.15500:00:04.808;-0.295;-0.16000:00:04.811;-0.315;-0.16000:00:04.813;-0.300;-0.15000:00:04.816;-0.275;-0.13000:00:04.819;-0.255;-0.15000:00:04.822;-0.255;-0.15500:00:04.825;-0.260;-0.16000:00:04.827;-0.265;-0.15000:00:04.830;-0.255;-0.12500:00:04.833;-0.235;-0.12000:00:04.836;-0.230;-0.11500:00:04.838;-0.225;-0.12500:00:04.841;-0.220;-0.13500:00:04.844;-0.220;-0.14000:00:04.847;-0.215;-0.13000:00:04.850;-0.200;-0.10500:00:04.852;-0.205;-0.10500:00:04.855;-0.205;-0.10000:00:04.858;-0.225;-0.10500:00:04.861;-0.235;-0.09000:00:04.863;-0.240;-0.08000:00:04.866;-0.230;-0.07500:00:04.869;-0.215;-0.09000:00:04.872;-0.240;-0.09000:00:04.875;-0.240;-0.10000:00:04.877;-0.250;-0.10000:00:04.880;-0.235;-0.09500:00:04.883;-0.210;-0.09000:00:04.886;-0.200;-0.11000:00:04.888;-0.220;-0.12500:00:04.891;-0.255;-0.13000:00:04.894;-0.275;-0.12000:00:04.897;-0.285;-0.12000:00:04.900;-0.300;-0.11000:00:04.902;-0.305;-0.11000:00:04.905;-0.320;-0.12000:00:04.908;-0.330;-0.13000:00:04.911;-0.325;-0.14000:00:04.913;-0.320;-0.14500:00:04.916;-0.330;-0.12500:00:04.919;-0.330;-0.13000:00:04.922;-0.335;-0.15000:00:04.925;-0.340;-0.14500:00:04.927;-0.345;-0.14000:00:04.930;-0.340;-0.14000:00:04.933;-0.335;-0.12000:00:04.936;-0.320;-0.13500:00:04.938;-0.325;-0.14500:00:04.941;-0.335;-0.16000:00:04.944;-0.345;-0.15000:00:04.947;-0.345;-0.13500:00:04.950;-0.345;-0.12500:00:04.952;-0.335;-0.13500:00:04.955;-0.340;-0.14500:00:04.958;-0.345;-0.15000:00:04.961;-0.355;-0.16000:00:04.963;-0.340;-0.14500:00:04.966;-0.340;-0.13500:00:04.969;-0.340;-0.13500:00:04.972;-0.340;-0.12500:00:04.975;-0.345;-0.16000:00:04.977;-0.355;-0.17500:00:04.980;-0.365;-0.19500:00:04.983;-0.370;-0.21000:00:04.986;-0.405;-0.23000:00:04.988;-0.445;-0.27000:00:04.991;-0.480;-0.29000:00:04.994;-0.495;-0.28000:00:04.997;-0.520;-0.19500:00:05.000;-0.535;-0.05000:00:05.002;-0.505;0.08500:00:05.005;-0.415;0.19500:00:05.008;-0.280;0.30500:00:05.011;-0.135;0.42000:00:05.013;0.065;0.56500:00:05.016;0.300;0.70500:00:05.019;0.580;0.80000:00:05.022;0.810;0.79500:00:05.025;0.945;0.59500:00:05.027;0.920;0.23500:00:05.030;0.775;-0.07500:00:05.033;0.445;-0.19000:00:05.036;0.020;-0.18500:00:05.038;-0.295;-0.15500:00:05.041;-0.445;-0.17000:00:05.044;-0.470;-0.16500:00:05.047;-0.425;-0.15500:00:05.050;-0.380;-0.14500:00:05.052;-0.360;-0.15500:00:05.055;-0.360;-0.19000:00:05.058;-0.370;-0.20000:00:05.061;-0.380;-0.19500:00:05.063;-0.380;-0.17500:00:05.066;-0.375;-0.17500:00:05.069;-0.370;-0.18000:00:05.072;-0.365;-0.18500:00:05.075;-0.370;-0.20000:00:05.077;-0.385;-0.19500:00:05.080;-0.385;-0.20000:00:05.083;-0.375;-0.19500:00:05.086;-0.370;-0.19000:00:05.088;-0.370;-0.19500:00:05.091;-0.385;-0.20000:00:05.094;-0.395;-0.20000:00:05.097;-0.385;-0.19000:00:05.100;-0.385;-0.18000:00:05.102;-0.390;-0.18500:00:05.105;-0.385;-0.19500:00:05.108;-0.395;-0.21000:00:05.111;-0.410;-0.21000:00:05.113;-0.400;-0.17500:00:05.116;-0.395;-0.19000:00:05.119;-0.380;-0.18500:00:05.122;-0.395;-0.18500:00:05.125;-0.395;-0.19500:00:05.127;-0.400;-0.20000:00:05.130;-0.400;-0.19500:00:05.133;-0.395;-0.18000:00:05.136;-0.390;-0.19000:00:05.138;-0.390;-0.19500:00:05.141;-0.395;-0.19000:00:05.144;-0.405;-0.19500:00:05.147;-0.390;-0.17500:00:05.150;-0.385;-0.17500:00:05.152;-0.375;-0.18500:00:05.155;-0.375;-0.19000:00:05.158;-0.380;-0.19500:00:05.161;-0.390;-0.19000:00:05.163;-0.385;-0.18500:00:05.166;-0.370;-0.17000:00:05.169;-0.370;-0.17000:00:05.172;-0.370;-0.19000:00:05.175;-0.375;-0.20000:00:05.177;-0.385;-0.20000:00:05.180;-0.370;-0.18000:00:05.183;-0.390;-0.17500:00:05.186;-0.375;-0.19500:00:05.188;-0.370;-0.17500:00:05.191;-0.380;-0.19000:00:05.194;-0.390;-0.19000:00:05.197;-0.390;-0.19000:00:05.200;-0.385;-0.18000:00:05.202;-0.375;-0.19000:00:05.205;-0.375;-0.21000:00:05.208;-0.385;-0.20500:00:05.211;-0.395;-0.20000:00:05.213;-0.390;-0.21000:00:05.216;-0.385;-0.19500:00:05.219;-0.375;-0.20500:00:05.222;-0.380;-0.21500:00:05.225;-0.385;-0.23000:00:05.227;-0.390;-0.21500:00:05.230;-0.380;-0.22500:00:05.233;-0.380;-0.20500:00:05.236;-0.370;-0.21500:00:05.238;-0.370;-0.23500:00:05.241;-0.365;-0.24500:00:05.244;-0.390;-0.24500:00:05.247;-0.365;-0.24000:00:05.250;-0.365;-0.24500:00:05.252;-0.360;-0.23500:00:05.255;-0.375;-0.26000:00:05.258;-0.380;-0.26500:00:05.261;-0.400;-0.27000:00:05.263;-0.390;-0.26500:00:05.266;-0.375;-0.26500:00:05.269;-0.375;-0.27000:00:05.272;-0.370;-0.28500:00:05.275;-0.385;-0.30000:00:05.277;-0.390;-0.29500:00:05.280;-0.390;-0.29500:00:05.283;-0.390;-0.29500:00:05.286;-0.390;-0.30500:00:05.288;-0.375;-0.31000:00:05.291;-0.385;-0.32000:00:05.294;-0.395;-0.32500:00:05.297;-0.380;-0.32000:00:05.300;-0.370;-0.31000:00:05.302;-0.375;-0.32000:00:05.305;-0.375;-0.32000:00:05.308;-0.390;-0.32500:00:05.311;-0.405;-0.31000:00:05.313;-0.375;-0.28000:00:05.316;-0.370;-0.28000:00:05.319;-0.360;-0.28000:00:05.322;-0.375;-0.26500:00:05.325;-0.385;-0.26500:00:05.327;-0.380;-0.25000:00:05.330;-0.370;-0.22500:00:05.333;-0.360;-0.20000:00:05.336;-0.345;-0.19500:00:05.338;-0.345;-0.19000:00:05.341;-0.330;-0.18000:00:05.344;-0.330;-0.17000:00:05.347;-0.315;-0.15000:00:05.350;-0.310;-0.13500:00:05.352;-0.295;-0.11500:00:05.355;-0.285;-0.12500:00:05.358;-0.285;-0.13000:00:05.361;-0.295;-0.12000:00:05.363;-0.280;-0.10500:00:05.366;-0.270;-0.10000:00:05.369;-0.280;-0.10000:00:05.372;-0.280;-0.10000:00:05.375;-0.280;-0.11500:00:05.377;-0.290;-0.12000:00:05.380;-0.290;-0.10500:00:05.383;-0.280;-0.10000:00:05.386;-0.275;-0.10500:00:05.388;-0.280;-0.11500:00:05.391;-0.285;-0.12000:00:05.394;-0.290;-0.11000:00:05.397;-0.290;-0.10500:00:05.400;-0.280;-0.09500:00:05.402;-0.280;-0.10000:00:05.405;-0.285;-0.11000:00:05.408;-0.290;-0.12000:00:05.411;-0.300;-0.12000:00:05.413;-0.295;-0.11500:00:05.416;-0.285;-0.10500:00:05.419;-0.280;-0.10500:00:05.422;-0.285;-0.09500:00:05.425;-0.285;-0.10500:00:05.427;-0.295;-0.12000:00:05.430;-0.285;-0.11500:00:05.433;-0.280;-0.10500:00:05.436;-0.275;-0.11000:00:05.438;-0.280;-0.12500:00:05.441;-0.290;-0.11500:00:05.444;-0.310;-0.13000:00:05.447;-0.305;-0.11500:00:05.450;-0.285;-0.09500:00:05.452;-0.270;-0.10000:00:05.455;-0.270;-0.11000:00:05.458;-0.275;-0.11500:00:05.461;-0.285;-0.11500:00:05.463;-0.285;-0.10500:00:05.466;-0.270;-0.10000:00:05.469;-0.265;-0.11000:00:05.472;-0.265;-0.10000:00:05.475;-0.265;-0.10000:00:05.477;-0.280;-0.10500:00:05.480;-0.265;-0.09500:00:05.483;-0.245;-0.09500:00:05.486;-0.235;-0.09500:00:05.488;-0.235;-0.11000:00:05.491;-0.250;-0.11500:00:05.494;-0.250;-0.11000:00:05.497;-0.245;-0.10500:00:05.500;-0.215;-0.10500:00:05.502;-0.220;-0.11500:00:05.505;-0.245;-0.11500:00:05.508;-0.255;-0.13500:00:05.511;-0.230;-0.12500:00:05.513;-0.205;-0.13500:00:05.516;-0.210;-0.12500:00:05.519;-0.220;-0.13000:00:05.522;-0.230;-0.15000:00:05.525;-0.240;-0.15500:00:05.527;-0.240;-0.16500:00:05.530;-0.245;-0.16500:00:05.533;-0.250;-0.17000:00:05.536;-0.270;-0.17500:00:05.538;-0.285;-0.17000:00:05.541;-0.315;-0.17500:00:05.544;-0.320;-0.17000:00:05.547;-0.320;-0.16500:00:05.550;-0.310;-0.16000:00:05.552;-0.330;-0.16000:00:05.555;-0.340;-0.17000:00:05.558;-0.345;-0.18000:00:05.561;-0.360;-0.17000:00:05.563;-0.365;-0.15500:00:05.566;-0.360;-0.15500:00:05.569;-0.350;-0.16000:00:05.572;-0.355;-0.16000:00:05.575;-0.375;-0.17500:00:05.577;-0.385;-0.17000:00:05.580;-0.375;-0.15500:00:05.583;-0.370;-0.15000:00:05.586;-0.365;-0.16000:00:05.588;-0.365;-0.15500:00:05.591;-0.370;-0.16500:00:05.594;-0.380;-0.16000:00:05.597;-0.360;-0.15000:00:05.600;-0.350;-0.15000:00:05.602;-0.355;-0.14500:00:05.605;-0.355;-0.15500:00:05.608;-0.350;-0.16500:00:05.611;-0.365;-0.15500:00:05.613;-0.350;-0.13500:00:05.616;-0.350;-0.13000:00:05.619;-0.340;-0.14500:00:05.622;-0.355;-0.15500:00:05.625;-0.350;-0.16000:00:05.627;-0.375;-0.16000:00:05.630;-0.365;-0.17500:00:05.633;-0.375;-0.19000:00:05.636;-0.400;-0.23500:00:05.638;-0.430;-0.25000:00:05.641;-0.475;-0.29500:00:05.644;-0.520;-0.31500:00:05.647;-0.520;-0.29500:00:05.650;-0.550;-0.19000:00:05.652;-0.570;-0.08500:00:05.655;-0.540;0.06000:00:05.658;-0.445;0.17500:00:05.661;-0.305;0.26500:00:05.663;-0.140;0.38000:00:05.666;0.025;0.48500:00:05.669;0.260;0.59000:00:05.672;0.510;0.66500:00:05.675;0.735;0.66500:00:05.677;0.845;0.50000:00:05.680;0.875;0.20500:00:05.683;0.735;-0.07500:00:05.686;0.400;-0.21500:00:05.688;-0.025;-0.20500:00:05.691;-0.335;-0.18000:00:05.694;-0.480;-0.17500:00:05.697;-0.470;-0.16500:00:05.700;-0.415;-0.14500:00:05.702;-0.375;-0.14500:00:05.705;-0.365;-0.16000:00:05.708;-0.385;-0.16500:00:05.711;-0.400;-0.17000:00:05.713;-0.380;-0.15500:00:05.716;-0.390;-0.15500:00:05.719;-0.375;-0.15500:00:05.722;-0.385;-0.17000:00:05.725;-0.395;-0.17500:00:05.727;-0.405;-0.17000:00:05.730;-0.390;-0.15500:00:05.733;-0.380;-0.15500:00:05.736;-0.385;-0.16000:00:05.738;-0.385;-0.16500:00:05.741;-0.395;-0.18000:00:05.744;-0.400;-0.17500:00:05.747;-0.405;-0.17000:00:05.750;-0.400;-0.16000:00:05.752;-0.390;-0.16000:00:05.755;-0.390;-0.17000:00:05.758;-0.395;-0.18000:00:05.761;-0.400;-0.18000:00:05.763;-0.390;-0.17000:00:05.766;-0.385;-0.16500:00:05.769;-0.390;-0.16500:00:05.772;-0.385;-0.17500:00:05.775;-0.410;-0.18000:00:05.777;-0.420;-0.18500:00:05.780;-0.405;-0.17000:00:05.783;-0.410;-0.16000:00:05.786;-0.390;-0.16500:00:05.788;-0.390;-0.17500:00:05.791;-0.390;-0.17500:00:05.794;-0.400;-0.17500:00:05.797;-0.400;-0.18000:00:05.800;-0.390;-0.17000:00:05.802;-0.375;-0.16000:00:05.805;-0.380;-0.17000:00:05.808;-0.395;-0.18000:00:05.811;-0.400;-0.18500:00:05.813;-0.390;-0.17000:00:05.816;-0.400;-0.16000:00:05.819;-0.390;-0.18000:00:05.822;-0.395;-0.18000:00:05.825;-0.410;-0.18500:00:05.827;-0.415;-0.18500:00:05.830;-0.405;-0.16500:00:05.833;-0.385;-0.15500:00:05.836;-0.385;-0.17000:00:05.838;-0.380;-0.17500:00:05.841;-0.400;-0.19500:00:05.844;-0.400;-0.19500:00:05.847;-0.395;-0.19000:00:05.850;-0.390;-0.17500:00:05.852;-0.380;-0.17500:00:05.855;-0.375;-0.19000:00:05.858;-0.395;-0.19000:00:05.861;-0.395;-0.19000:00:05.863;-0.385;-0.18500:00:05.866;-0.380;-0.19000:00:05.869;-0.375;-0.21500:00:05.872;-0.385;-0.22000:00:05.875;-0.390;-0.21500:00:05.877;-0.400;-0.22500:00:05.880;-0.400;-0.21500:00:05.883;-0.385;-0.20000:00:05.886;-0.380;-0.23000:00:05.888;-0.395;-0.22500:00:05.891;-0.390;-0.24500:00:05.894;-0.400;-0.24000:00:05.897;-0.395;-0.24500:00:05.900;-0.385;-0.22000:00:05.902;-0.380;-0.24500:00:05.905;-0.385;-0.26000:00:05.908;-0.395;-0.28000:00:05.911;-0.405;-0.28000:00:05.913;-0.400;-0.28500:00:05.916;-0.390;-0.27000:00:05.919;-0.380;-0.28500:00:05.922;-0.380;-0.29500:00:05.925;-0.385;-0.30500:00:05.927;-0.405;-0.30500:00:05.930;-0.395;-0.31500:00:05.933;-0.400;-0.30500:00:05.936;-0.390;-0.31000:00:05.938;-0.400;-0.33000:00:05.941;-0.405;-0.32500:00:05.944;-0.425;-0.33000:00:05.947;-0.420;-0.31500:00:05.950;-0.405;-0.31000:00:05.952;-0.400;-0.31500:00:05.955;-0.405;-0.31000:00:05.958;-0.405;-0.32000:00:05.961;-0.415;-0.30500:00:05.963;-0.400;-0.29000:00:05.966;-0.390;-0.27500:00:05.969;-0.380;-0.27000:00:05.972;-0.385;-0.26500:00:05.975;-0.395;-0.26500:00:05.977;-0.405;-0.25500:00:05.980;-0.390;-0.24500:00:05.983;-0.370;-0.22500:00:05.986;-0.370;-0.21500:00:05.988;-0.370;-0.21500:00:05.991;-0.385;-0.21500:00:05.994;-0.370;-0.21000:00:05.997;-0.355;-0.20500:00:06.000;-0.345;-0.18500:00:06.002;-0.340;-0.18000:00:06.005;-0.335;-0.19000:00:06.008;-0.340;-0.19000:00:06.011;-0.355;-0.17000:00:06.013;-0.335;-0.15500:00:06.016;-0.325;-0.14000:00:06.019;-0.310;-0.14500:00:06.022;-0.305;-0.16500:00:06.025;-0.305;-0.16000:00:06.027;-0.320;-0.16000:00:06.030;-0.315;-0.15000:00:06.033;-0.310;-0.14500:00:06.036;-0.305;-0.14000:00:06.038;-0.305;-0.15000:00:06.041;-0.330;-0.15000:00:06.044;-0.325;-0.17000:00:06.047;-0.345;-0.15500:00:06.050;-0.325;-0.14500:00:06.052;-0.315;-0.13000:00:06.055;-0.315;-0.14000:00:06.058;-0.305;-0.15000:00:06.061;-0.310;-0.14500:00:06.063;-0.310;-0.15000:00:06.066;-0.300;-0.13500:00:06.069;-0.305;-0.14000:00:06.072;-0.305;-0.15500:00:06.075;-0.315;-0.15000:00:06.077;-0.320;-0.16500:00:06.080;-0.325;-0.14500:00:06.083;-0.315;-0.14500:00:06.086;-0.305;-0.15500:00:06.088;-0.315;-0.16000:00:06.091;-0.325;-0.16000:00:06.094;-0.325;-0.17500:00:06.097;-0.330;-0.15500:00:06.100;-0.315;-0.15500:00:06.102;-0.315;-0.15000:00:06.105;-0.310;-0.16000:00:06.108;-0.330;-0.16500:00:06.111;-0.340;-0.16500:00:06.113;-0.335;-0.17500:00:06.116;-0.330;-0.16500:00:06.119;-0.345;-0.16500:00:06.122;-0.355;-0.16500:00:06.125;-0.365;-0.17000:00:06.127;-0.370;-0.16500:00:06.130;-0.345;-0.16000:00:06.133;-0.340;-0.16000:00:06.136;-0.340;-0.16500:00:06.138;-0.345;-0.17000:00:06.141;-0.360;-0.19500:00:06.144;-0.365;-0.18500:00:06.147;-0.360;-0.18000:00:06.150;-0.360;-0.17000:00:06.152;-0.345;-0.16500:00:06.155;-0.355;-0.18500:00:06.158;-0.365;-0.18000:00:06.161;-0.350;-0.18500:00:06.163;-0.360;-0.17000:00:06.166;-0.350;-0.17500:00:06.169;-0.340;-0.17500:00:06.172;-0.345;-0.17500:00:06.175;-0.355;-0.18000:00:06.177;-0.370;-0.17500:00:06.180;-0.350;-0.15500:00:06.183;-0.350;-0.16000:00:06.186;-0.350;-0.17000:00:06.188;-0.345;-0.18000:00:06.191;-0.350;-0.20000:00:06.194;-0.355;-0.19500:00:06.197;-0.360;-0.16500:00:06.200;-0.345;-0.16000:00:06.202;-0.355;-0.16000:00:06.205;-0.350;-0.16500:00:06.208;-0.360;-0.18500:00:06.211;-0.370;-0.19000:00:06.213;-0.355;-0.18000:00:06.216;-0.355;-0.17000:00:06.219;-0.350;-0.17000:00:06.222;-0.355;-0.17000:00:06.225;-0.360;-0.18000:00:06.227;-0.390;-0.18000:00:06.230;-0.385;-0.17000:00:06.233;-0.360;-0.18000:00:06.236;-0.360;-0.18000:00:06.238;-0.370;-0.20000:00:06.241;-0.370;-0.19500:00:06.244;-0.390;-0.19500:00:06.247;-0.375;-0.15500:00:06.250;-0.370;-0.14500:00:06.252;-0.350;-0.16500:00:06.255;-0.340;-0.18000:00:06.258;-0.345;-0.18500:00:06.261;-0.360;-0.18000:00:06.263;-0.360;-0.17000:00:06.266;-0.350;-0.16000:00:06.269;-0.350;-0.16000:00:06.272;-0.335;-0.17000:00:06.275;-0.360;-0.18000:00:06.277;-0.365;-0.19000:00:06.280;-0.365;-0.18000:00:06.283;-0.360;-0.16500:00:06.286;-0.360;-0.17000:00:06.288;-0.365;-0.18500:00:06.291;-0.375;-0.19500:00:06.294;-0.385;-0.18500:00:06.297;-0.385;-0.18500:00:06.300;-0.365;-0.18500:00:06.302;-0.370;-0.18500:00:06.305;-0.375;-0.19000:00:06.308;-0.370;-0.18000:00:06.311;-0.375;-0.19000:00:06.313;-0.365;-0.19000:00:06.316;-0.355;-0.18000:00:06.319;-0.355;-0.19000:00:06.322;-0.360;-0.19000:00:06.325;-0.365;-0.19500:00:06.327;-0.370;-0.19500:00:06.330;-0.360;-0.18500:00:06.333;-0.350;-0.17500:00:06.336;-0.340;-0.19500:00:06.338;-0.345;-0.18000:00:06.341;-0.340;-0.18000:00:06.344;-0.350;-0.18500:00:06.347;-0.345;-0.19000:00:06.350;-0.350;-0.17500:00:06.352;-0.360;-0.19000:00:06.355;-0.350;-0.19000:00:06.358;-0.360;-0.21000:00:06.361;-0.370;-0.20500:00:06.363;-0.360;-0.18500:00:06.366;-0.360;-0.18000:00:06.369;-0.355;-0.18000:00:06.372;-0.360;-0.19000:00:06.375;-0.375;-0.21500:00:06.377;-0.375;-0.22000:00:06.380;-0.370;-0.20500:00:06.383;-0.350;-0.19500:00:06.386;-0.355;-0.19000:00:06.388;-0.360;-0.19500:00:06.391;-0.365;-0.21500:00:06.394;-0.375;-0.23500:00:06.397;-0.370;-0.21000:00:06.400;-0.365;-0.20000:00:06.402;-0.360;-0.21000:00:06.405;-0.355;-0.20500:00:06.408;-0.360;-0.21500:00:06.411;-0.360;-0.21500:00:06.413;-0.350;-0.20500:00:06.416;-0.340;-0.20000:00:06.419;-0.345;-0.19000:00:06.422;-0.345;-0.22000:00:06.425;-0.355;-0.22500:00:06.427;-0.360;-0.22500:00:06.430;-0.360;-0.20500:00:06.433;-0.365;-0.20000:00:06.436;-0.345;-0.20500:00:06.438;-0.355;-0.20500:00:06.441;-0.350;-0.21000:00:06.444;-0.360;-0.21000:00:06.447;-0.355;-0.19500:00:06.450;-0.360;-0.19500:00:06.452;-0.345;-0.19500:00:06.455;-0.335;-0.20000:00:06.458;-0.330;-0.22500:00:06.461;-0.330;-0.22500:00:06.463;-0.310;-0.20500:00:06.466;-0.305;-0.19000:00:06.469;-0.300;-0.19500:00:06.472;-0.305;-0.19000:00:06.475;-0.295;-0.20000:00:06.477;-0.305;-0.18500:00:06.480;-0.285;-0.18000:00:06.483;-0.275;-0.16500:00:06.486;-0.265;-0.17000:00:06.488;-0.255;-0.18000:00:06.491;-0.255;-0.17500:00:06.494;-0.260;-0.17000:00:06.497;-0.265;-0.16500:00:06.500;-0.255;-0.15000:00:06.502;-0.255;-0.15500:00:06.505;-0.260;-0.16500:00:06.508;-0.280;-0.17000:00:06.511;-0.290;-0.16500:00:06.513;-0.280;-0.16500:00:06.516;-0.270;-0.15500:00:06.519;-0.255;-0.17000:00:06.522;-0.275;-0.18000:00:06.525;-0.290;-0.17000:00:06.527;-0.320;-0.16500:00:06.530;-0.300;-0.16000:00:06.533;-0.295;-0.16000:00:06.536;-0.270;-0.18000:00:06.538;-0.265;-0.19000:00:06.541;-0.270;-0.20500:00:06.544;-0.285;-0.19000:00:06.547;-0.300;-0.19000:00:06.550;-0.310;-0.17000:00:06.552;-0.315;-0.18500:00:06.555;-0.320;-0.19000:00:06.558;-0.350;-0.19500:00:06.561;-0.370;-0.22500:00:06.563;-0.365;-0.21500:00:06.566;-0.365;-0.20000:00:06.569;-0.365;-0.20500:00:06.572;-0.370;-0.20500:00:06.575;-0.370;-0.20500:00:06.577;-0.370;-0.22000:00:06.580;-0.380;-0.21000:00:06.583;-0.360;-0.21000:00:06.586;-0.375;-0.21000:00:06.588;-0.375;-0.21500:00:06.591;-0.400;-0.22500:00:06.594;-0.420;-0.23500:00:06.597;-0.405;-0.23000:00:06.600;-0.400;-0.20500:00:06.602;-0.385;-0.21500:00:06.605;-0.380;-0.22500:00:06.608;-0.400;-0.22500:00:06.611;-0.415;-0.22000:00:06.613;-0.405;-0.22000:00:06.616;-0.395;-0.21500:00:06.619;-0.395;-0.22500:00:06.622;-0.395;-0.22500:00:06.625;-0.410;-0.25500:00:06.627;-0.430;-0.27500:00:06.630;-0.440;-0.29000:00:06.633;-0.455;-0.29000:00:06.636;-0.490;-0.31500:00:06.638;-0.485;-0.33000:00:06.641;-0.520;-0.30500:00:06.644;-0.570;-0.24500:00:06.647;-0.575;-0.11500:00:06.650;-0.525;-0.02500:00:06.652;-0.420;0.03000:00:06.655;-0.305;0.08000:00:06.658;-0.190;0.15500:00:06.661;-0.020;0.26500:00:06.663;0.220;0.38500:00:06.666;0.485;0.50000:00:06.669;0.715;0.54500:00:06.672;0.845;0.45000:00:06.675;0.885;0.21500:00:06.677;0.790;-0.09000:00:06.680;0.560;-0.32500:00:06.683;0.225;-0.39000:00:06.686;-0.070;-0.38500:00:06.688;-0.285;-0.36500:00:06.691;-0.425;-0.33500:00:06.694;-0.500;-0.29500:00:06.697;-0.550;-0.28500:00:06.700;-0.535;-0.27000:00:06.702;-0.500;-0.26500:00:06.705;-0.465;-0.27000:00:06.708;-0.450;-0.27500:00:06.711;-0.450;-0.28500:00:06.713;-0.435;-0.26500:00:06.716;-0.420;-0.25000:00:06.719;-0.410;-0.26000:00:06.722;-0.410;-0.26000:00:06.725;-0.415;-0.26500:00:06.727;-0.420;-0.27000:00:06.730;-0.425;-0.26500:00:06.733;-0.420;-0.24500:00:06.736;-0.430;-0.26000:00:06.738;-0.430;-0.25500:00:06.741;-0.440;-0.28000:00:06.744;-0.450;-0.26000:00:06.747;-0.450;-0.25000:00:06.750;-0.430;-0.25000:00:06.752;-0.430;-0.25500:00:06.755;-0.430;-0.25500:00:06.758;-0.445;-0.26000:00:06.761;-0.445;-0.26000:00:06.763;-0.440;-0.25500:00:06.766;-0.425;-0.22500:00:06.769;-0.430;-0.24000:00:06.772;-0.430;-0.24500:00:06.775;-0.425;-0.26500:00:06.777;-0.445;-0.27500:00:06.780;-0.445;-0.25000:00:06.783;-0.430;-0.24500:00:06.786;-0.435;-0.23000:00:06.788;-0.435;-0.24000:00:06.791;-0.445;-0.25500:00:06.794;-0.445;-0.25000:00:06.797;-0.435;-0.25000:00:06.800;-0.430;-0.24500:00:06.802;-0.425;-0.23500:00:06.805;-0.430;-0.24000:00:06.808;-0.430;-0.25000:00:06.811;-0.440;-0.25000:00:06.813;-0.420;-0.24500:00:06.816;-0.430;-0.22000:00:06.819;-0.425;-0.24500:00:06.822;-0.430;-0.24500:00:06.825;-0.440;-0.24000:00:06.827;-0.440;-0.25500:00:06.830;-0.430;-0.24500:00:06.833;-0.430;-0.22500:00:06.836;-0.415;-0.24000:00:06.838;-0.425;-0.25000:00:06.841;-0.430;-0.26000:00:06.844;-0.455;-0.26500:00:06.847;-0.445;-0.25500:00:06.850;-0.445;-0.24000:00:06.852;-0.430;-0.25000:00:06.855;-0.430;-0.25000:00:06.858;-0.440;-0.26500:00:06.861;-0.440;-0.26000:00:06.863;-0.435;-0.26000:00:06.866;-0.430;-0.26500:00:06.869;-0.415;-0.27500:00:06.872;-0.415;-0.27000:00:06.875;-0.425;-0.27000:00:06.877;-0.425;-0.27000:00:06.880;-0.420;-0.27000:00:06.883;-0.405;-0.24500:00:06.886;-0.405;-0.26500:00:06.888;-0.415;-0.26500:00:06.891;-0.415;-0.27000:00:06.894;-0.425;-0.28500:00:06.897;-0.430;-0.26000:00:06.900;-0.405;-0.24500:00:06.902;-0.405;-0.25500:00:06.905;-0.405;-0.26500:00:06.908;-0.405;-0.28500:00:06.911;-0.430;-0.29500:00:06.913;-0.415;-0.30000:00:06.916;-0.410;-0.29500:00:06.919;-0.415;-0.28500:00:06.922;-0.430;-0.32000:00:06.925;-0.445;-0.32500:00:06.927;-0.465;-0.33500:00:06.930;-0.460;-0.33500:00:06.933;-0.450;-0.33000:00:06.936;-0.455;-0.35000:00:06.938;-0.460;-0.34500:00:06.941;-0.465;-0.36500:00:06.944;-0.485;-0.38000:00:06.947;-0.495;-0.37500:00:06.950;-0.475;-0.37500:00:06.952;-0.490;-0.38500:00:06.955;-0.500;-0.38500:00:06.958;-0.495;-0.40000:00:06.961;-0.515;-0.40000:00:06.963;-0.500;-0.39500:00:06.966;-0.485;-0.39000:00:06.969;-0.490;-0.39000:00:06.972;-0.485;-0.40000:00:06.975;-0.500;-0.40500:00:06.977;-0.500;-0.41000:00:06.980;-0.490;-0.38000:00:06.983;-0.480;-0.35500:00:06.986;-0.460;-0.35000:00:06.988;-0.460;-0.34000:00:06.991;-0.470;-0.34500:00:06.994;-0.465;-0.33500:00:06.997;-0.440;-0.31000:00:07.000;-0.430;-0.28500:00:07.002;-0.425;-0.28000:00:07.005;-0.410;-0.27000:00:07.008;-0.410;-0.25500:00:07.011;-0.400;-0.24500:00:07.013;-0.390;-0.23500:00:07.016;-0.380;-0.21000:00:07.019;-0.355;-0.21500:00:07.022;-0.350;-0.22000:00:07.025;-0.355;-0.22000:00:07.027;-0.350;-0.21500:00:07.030;-0.340;-0.19000:00:07.033;-0.330;-0.18000:00:07.036;-0.325;-0.18000:00:07.038;-0.305;-0.18500:00:07.041;-0.320;-0.19500:00:07.044;-0.315;-0.19500:00:07.047;-0.305;-0.19000:00:07.050;-0.300;-0.17000:00:07.052;-0.305;-0.17000:00:07.055;-0.305;-0.18500:00:07.058;-0.310;-0.18500:00:07.061;-0.330;-0.18500:00:07.063;-0.310;-0.18000:00:07.066;-0.315;-0.17000:00:07.069;-0.315;-0.19000:00:07.072;-0.320;-0.18000:00:07.075;-0.325;-0.19500:00:07.077;-0.325;-0.19000:00:07.080;-0.325;-0.17000:00:07.083;-0.310;-0.17000:00:07.086;-0.310;-0.17500:00:07.088;-0.315;-0.19000:00:07.091;-0.325;-0.19500:00:07.094;-0.330;-0.19000:00:07.097;-0.325;-0.18500:00:07.100;-0.325;-0.18500:00:07.102;-0.315;-0.18000:00:07.105;-0.320;-0.18500:00:07.108;-0.330;-0.19000:00:07.111;-0.335;-0.20500:00:07.113;-0.330;-0.19500:00:07.116;-0.315;-0.18500:00:07.119;-0.320;-0.18500:00:07.122;-0.320;-0.18500:00:07.125;-0.335;-0.20500:00:07.127;-0.335;-0.20500:00:07.130;-0.325;-0.18000:00:07.133;-0.325;-0.19500:00:07.136;-0.320;-0.19500:00:07.138;-0.320;-0.20500:00:07.141;-0.325;-0.21000:00:07.144;-0.350;-0.22500:00:07.147;-0.345;-0.21000:00:07.150;-0.345;-0.20000:00:07.152;-0.335;-0.20000:00:07.155;-0.345;-0.20500:00:07.158;-0.355;-0.21000:00:07.161;-0.355;-0.22500:00:07.163;-0.355;-0.21000:00:07.166;-0.345;-0.20000:00:07.169;-0.335;-0.20000:00:07.172;-0.335;-0.20500:00:07.175;-0.345;-0.21000:00:07.177;-0.355;-0.20000:00:07.180;-0.340;-0.19500:00:07.183;-0.335;-0.18500:00:07.186;-0.330;-0.20500:00:07.188;-0.335;-0.21000:00:07.191;-0.345;-0.22000:00:07.194;-0.350;-0.21500:00:07.197;-0.350;-0.20500:00:07.200;-0.340;-0.20000:00:07.202;-0.335;-0.21500:00:07.205;-0.330;-0.21000:00:07.208;-0.360;-0.22500:00:07.211;-0.355;-0.22000:00:07.213;-0.345;-0.21500:00:07.216;-0.335;-0.20000:00:07.219;-0.345;-0.21000:00:07.222;-0.350;-0.20500:00:07.225;-0.360;-0.21500:00:07.227;-0.380;-0.21500:00:07.230;-0.370;-0.21500:00:07.233;-0.345;-0.20000:00:07.236;-0.345;-0.20000:00:07.238;-0.350;-0.21000:00:07.241;-0.355;-0.22000:00:07.244;-0.365;-0.21000:00:07.247;-0.360;-0.19500:00:07.250;-0.345;-0.20000:00:07.252;-0.345;-0.19000:00:07.255;-0.350;-0.21000:00:07.258;-0.360;-0.22000:00:07.261;-0.360;-0.21500:00:07.263;-0.350;-0.20000:00:07.266;-0.355;-0.18500:00:07.269;-0.340;-0.19500:00:07.272;-0.345;-0.20000:00:07.275;-0.355;-0.20000:00:07.277;-0.355;-0.20500:00:07.280;-0.355;-0.19500:00:07.283;-0.340;-0.18500:00:07.286;-0.340;-0.19000:00:07.288;-0.345;-0.19500:00:07.291;-0.365;-0.20000:00:07.294;-0.370;-0.20000:00:07.297;-0.350;-0.20000:00:07.300;-0.330;-0.19000:00:07.302;-0.320;-0.20000:00:07.305;-0.315;-0.19000:00:07.308;-0.295;-0.20000:00:07.311;-0.305;-0.19500:00:07.313;-0.295;-0.18000:00:07.316;-0.300;-0.16000:00:07.319;-0.285;-0.18000:00:07.322;-0.275;-0.18000:00:07.325;-0.260;-0.18500:00:07.327;-0.275;-0.18000:00:07.330;-0.265;-0.16000:00:07.333;-0.260;-0.14500:00:07.336;-0.250;-0.15500:00:07.338;-0.245;-0.17000:00:07.341;-0.255;-0.17000:00:07.344;-0.265;-0.15500:00:07.347;-0.260;-0.14500:00:07.350;-0.260;-0.13000:00:07.352;-0.250;-0.13500:00:07.355;-0.260;-0.14000:00:07.358;-0.280;-0.13500:00:07.361;-0.280;-0.14000:00:07.363;-0.275;-0.14000:00:07.366;-0.285;-0.12500:00:07.369;-0.280;-0.13000:00:07.372;-0.255;-0.15000:00:07.375;-0.245;-0.16500:00:07.377;-0.245;-0.16500:00:07.380;-0.260;-0.16500:00:07.383;-0.285;-0.15500:00:07.386;-0.290;-0.15000:00:07.388;-0.300;-0.16500:00:07.391;-0.320;-0.18000:00:07.394;-0.335;-0.19500:00:07.397;-0.355;-0.17500:00:07.400;-0.350;-0.17000:00:07.402;-0.355;-0.17500:00:07.405;-0.355;-0.18500:00:07.408;-0.375;-0.19500:00:07.411;-0.385;-0.19000:00:07.413;-0.380;-0.17500:00:07.416;-0.360;-0.18500:00:07.419;-0.350;-0.19000:00:07.422;-0.360;-0.20500:00:07.425;-0.365;-0.21500:00:07.427;-0.370;-0.21500:00:07.430;-0.370;-0.19500:00:07.433;-0.365;-0.18000:00:07.436;-0.360;-0.19000:00:07.438;-0.365;-0.20000:00:07.441;-0.370;-0.20000:00:07.444;-0.385;-0.21500:00:07.447;-0.385;-0.20000:00:07.450;-0.365;-0.18000:00:07.452;-0.360;-0.19500:00:07.455;-0.380;-0.20000:00:07.458;-0.385;-0.20500:00:07.461;-0.395;-0.21000:00:07.463;-0.395;-0.20000:00:07.466;-0.385;-0.20500:00:07.469;-0.380;-0.23500:00:07.472;-0.395;-0.26000:00:07.475;-0.425;-0.28500:00:07.477;-0.465;-0.30000:00:07.480;-0.500;-0.32500:00:07.483;-0.515;-0.32000:00:07.486;-0.530;-0.29000:00:07.488;-0.560;-0.19000:00:07.491;-0.585;-0.05500:00:07.494;-0.530;0.05000:00:07.497;-0.410;0.15000:00:07.500;-0.255;0.24500:00:07.502;-0.105;0.34500:00:07.505;0.105;0.44500:00:07.508;0.355;0.53000:00:07.511;0.600;0.59500:00:07.513;0.810;0.52000:00:07.516;0.890;0.27500:00:07.519;0.830;-0.08500:00:07.522;0.580;-0.30000:00:07.525;0.185;-0.33500:00:07.527;-0.205;-0.28500:00:07.530;-0.450;-0.25000:00:07.533;-0.525;-0.24500:00:07.536;-0.495;-0.23500:00:07.538;-0.465;-0.21500:00:07.541;-0.435;-0.23000:00:07.544;-0.415;-0.23000:00:07.547;-0.415;-0.24000:00:07.550;-0.415;-0.23500:00:07.552;-0.400;-0.23500:00:07.555;-0.395;-0.24500:00:07.558;-0.405;-0.25500:00:07.561;-0.425;-0.25000:00:07.563;-0.435;-0.24000:00:07.566;-0.415;-0.22500:00:07.569;-0.415;-0.23000:00:07.572;-0.415;-0.25000:00:07.575;-0.415;-0.24000:00:07.577;-0.430;-0.25500:00:07.580;-0.420;-0.23000:00:07.583;-0.410;-0.22500:00:07.586;-0.405;-0.22500:00:07.588;-0.420;-0.22500:00:07.591;-0.410;-0.23000:00:07.594;-0.420;-0.24000:00:07.597;-0.400;-0.22500:00:07.600;-0.395;-0.21500:00:07.602;-0.385;-0.21500:00:07.605;-0.400;-0.22500:00:07.608;-0.400;-0.23500:00:07.611;-0.400;-0.24000:00:07.613;-0.400;-0.22500:00:07.616;-0.395;-0.20500:00:07.619;-0.400;-0.21000:00:07.622;-0.400;-0.22500:00:07.625;-0.400;-0.23000:00:07.627;-0.410;-0.23500:00:07.630;-0.395;-0.22500:00:07.633;-0.410;-0.21500:00:07.636;-0.400;-0.22000:00:07.638;-0.395;-0.23000:00:07.641;-0.405;-0.23500:00:07.644;-0.410;-0.23000:00:07.647;-0.415;-0.21500:00:07.650;-0.405;-0.21500:00:07.652;-0.400;-0.21500:00:07.655;-0.395;-0.22500:00:07.658;-0.405;-0.23500:00:07.661;-0.415;-0.23500:00:07.663;-0.405;-0.23000:00:07.666;-0.415;-0.21500:00:07.669;-0.410;-0.22500:00:07.672;-0.405;-0.22500:00:07.675;-0.405;-0.23500:00:07.677;-0.410;-0.24500:00:07.680;-0.405;-0.24000:00:07.683;-0.400;-0.22500:00:07.686;-0.395;-0.21000:00:07.688;-0.405;-0.23000:00:07.691;-0.405;-0.23000:00:07.694;-0.400;-0.24500:00:07.697;-0.395;-0.22000:00:07.700;-0.390;-0.22500:00:07.702;-0.395;-0.23500:00:07.705;-0.390;-0.24500:00:07.708;-0.395;-0.25000:00:07.711;-0.420;-0.25000:00:07.713;-0.415;-0.24000:00:07.716;-0.405;-0.24000:00:07.719;-0.400;-0.24500:00:07.722;-0.400;-0.25000:00:07.725;-0.415;-0.27000:00:07.727;-0.420;-0.27000:00:07.730;-0.410;-0.26500:00:07.733;-0.395;-0.26000:00:07.736;-0.400;-0.28000:00:07.738;-0.405;-0.29500:00:07.741;-0.415;-0.29500:00:07.744;-0.435;-0.31500:00:07.747;-0.415;-0.31000:00:07.750;-0.415;-0.30500:00:07.752;-0.400;-0.31000:00:07.755;-0.405;-0.32500:00:07.758;-0.420;-0.33000:00:07.761;-0.430;-0.35000:00:07.763;-0.425;-0.34000:00:07.766;-0.410;-0.33500:00:07.769;-0.410;-0.35000:00:07.772;-0.405;-0.35000:00:07.775;-0.415;-0.37000:00:07.777;-0.425;-0.36500:00:07.780;-0.425;-0.35500:00:07.783;-0.420;-0.33500:00:07.786;-0.410;-0.35500:00:07.788;-0.410;-0.36500:00:07.791;-0.420;-0.37000:00:07.794;-0.430;-0.36000:00:07.797;-0.425;-0.33500:00:07.800;-0.420;-0.31500:00:07.802;-0.405;-0.31500:00:07.805;-0.415;-0.30500:00:07.808;-0.410;-0.28500:00:07.811;-0.410;-0.28500:00:07.813;-0.385;-0.27000:00:07.816;-0.370;-0.24000:00:07.819;-0.360;-0.23000:00:07.822;-0.350;-0.22000:00:07.825;-0.350;-0.22000:00:07.827;-0.350;-0.20000:00:07.830;-0.335;-0.18000:00:07.833;-0.320;-0.17500:00:07.836;-0.305;-0.18000:00:07.838;-0.315;-0.18500:00:07.841;-0.315;-0.19000:00:07.844;-0.320;-0.18500:00:07.847;-0.305;-0.18000:00:07.850;-0.305;-0.17500:00:07.852;-0.295;-0.17000:00:07.855;-0.290;-0.16500:00:07.858;-0.295;-0.17500:00:07.861;-0.295;-0.17000:00:07.863;-0.285;-0.16500:00:07.866;-0.285;-0.15500:00:07.869;-0.270;-0.16000:00:07.872;-0.280;-0.16000:00:07.875;-0.280;-0.16500:00:07.877;-0.295;-0.16500:00:07.880;-0.280;-0.16000:00:07.883;-0.285;-0.14500:00:07.886;-0.275;-0.15000:00:07.888;-0.285;-0.16000:00:07.891;-0.295;-0.16500:00:07.894;-0.305;-0.17500:00:07.897;-0.295;-0.15000:00:07.900;-0.285;-0.14000:00:07.902;-0.285;-0.15500:00:07.905;-0.290;-0.16000:00:07.908;-0.300;-0.17500:00:07.911;-0.310;-0.17500:00:07.913;-0.295;-0.17000:00:07.916;-0.300;-0.16000:00:07.919;-0.290;-0.15500:00:07.922;-0.285;-0.16500:00:07.925;-0.305;-0.17500:00:07.927;-0.310;-0.18000:00:07.930;-0.300;-0.17000:00:07.933;-0.295;-0.16500:00:07.936;-0.305;-0.17000:00:07.938;-0.300;-0.18500:00:07.941;-0.305;-0.18500:00:07.944;-0.320;-0.18000:00:07.947;-0.320;-0.17500:00:07.950;-0.310;-0.17000:00:07.952;-0.300;-0.18000:00:07.955;-0.310;-0.18500:00:07.958;-0.320;-0.20000:00:07.961;-0.340;-0.19500:00:07.963;-0.330;-0.18500:00:07.966;-0.310;-0.17500:00:07.969;-0.315;-0.18000:00:07.972;-0.325;-0.18500:00:07.975;-0.325;-0.20500:00:07.977;-0.345;-0.21000:00:07.980;-0.330;-0.19000:00:07.983;-0.320;-0.18500:00:07.986;-0.320;-0.19000:00:07.988;-0.335;-0.20000:00:07.991;-0.335;-0.20500:00:07.994;-0.355;-0.21500:00:07.997;-0.340;-0.20000:00:08.000;-0.320;-0.18000:00:08.002;-0.315;-0.18500:00:08.005;-0.330;-0.20000:00:08.008;-0.340;-0.20500:00:08.011;-0.340;-0.20000:00:08.013;-0.350;-0.20500:00:08.016;-0.330;-0.19000:00:08.019;-0.330;-0.19000:00:08.022;-0.340;-0.18000:00:08.025;-0.350;-0.20500:00:08.027;-0.355;-0.20000:00:08.030;-0.345;-0.19500:00:08.033;-0.335;-0.18000:00:08.036;-0.335;-0.18500:00:08.038;-0.340;-0.18500:00:08.041;-0.340;-0.20000:00:08.044;-0.345;-0.20000:00:08.047;-0.335;-0.18000:00:08.050;-0.335;-0.18000:00:08.052;-0.325;-0.18500:00:08.055;-0.325;-0.18500:00:08.058;-0.335;-0.20000:00:08.061;-0.340;-0.19500:00:08.063;-0.340;-0.17500:00:08.066;-0.320;-0.17500:00:08.069;-0.315;-0.18500:00:08.072;-0.320;-0.19000:00:08.075;-0.335;-0.19500:00:08.077;-0.335;-0.20500:00:08.080;-0.320;-0.18500:00:08.083;-0.325;-0.16000:00:08.086;-0.315;-0.17000:00:08.088;-0.320;-0.19000:00:08.091;-0.320;-0.19000:00:08.094;-0.345;-0.19000:00:08.097;-0.335;-0.18000:00:08.100;-0.320;-0.17000:00:08.102;-0.310;-0.16000:00:08.105;-0.320;-0.17000:00:08.108;-0.320;-0.18500:00:08.111;-0.340;-0.19500:00:08.113;-0.330;-0.18000:00:08.116;-0.320;-0.17500:00:08.119;-0.310;-0.17000:00:08.122;-0.310;-0.17000:00:08.125;-0.310;-0.19500:00:08.127;-0.295;-0.20000:00:08.130;-0.280;-0.18000:00:08.133;-0.255;-0.17000:00:08.136;-0.250;-0.17500:00:08.138;-0.250;-0.18000:00:08.141;-0.255;-0.18000:00:08.144;-0.260;-0.17000:00:08.147;-0.240;-0.15500:00:08.150;-0.220;-0.13500:00:08.152;-0.230;-0.14500:00:08.155;-0.230;-0.16000:00:08.158;-0.215;-0.16000:00:08.161;-0.220;-0.16000:00:08.163;-0.225;-0.14000:00:08.166;-0.230;-0.12000:00:08.169;-0.230;-0.12000:00:08.172;-0.235;-0.13000:00:08.175;-0.245;-0.13000:00:08.177;-0.255;-0.12500:00:08.180;-0.240;-0.12500:00:08.183;-0.235;-0.11500:00:08.186;-0.245;-0.11000:00:08.188;-0.235;-0.13000:00:08.191;-0.230;-0.14500:00:08.194;-0.220;-0.15500:00:08.197;-0.195;-0.14000:00:08.200;-0.220;-0.14000:00:08.202;-0.245;-0.14500:00:08.205;-0.260;-0.15000:00:08.208;-0.270;-0.16000:00:08.211;-0.290;-0.16500:00:08.213;-0.300;-0.16000:00:08.216;-0.305;-0.15000:00:08.219;-0.305;-0.16500:00:08.222;-0.320;-0.18500:00:08.225;-0.330;-0.18000:00:08.227;-0.350;-0.18500:00:08.230;-0.350;-0.17000:00:08.233;-0.335;-0.15500:00:08.236;-0.335;-0.17500:00:08.238;-0.335;-0.19000:00:08.241;-0.340;-0.19500:00:08.244;-0.350;-0.19500:00:08.247;-0.350;-0.18000:00:08.250;-0.345;-0.17500:00:08.252;-0.335;-0.18000:00:08.255;-0.345;-0.18000:00:08.258;-0.355;-0.19000:00:08.261;-0.370;-0.17000:00:08.263;-0.350;-0.18000:00:08.266;-0.345;-0.17500:00:08.269;-0.335;-0.18000:00:08.272;-0.335;-0.18500:00:08.275;-0.335;-0.20000:00:08.277;-0.355;-0.19500:00:08.280;-0.355;-0.20000:00:08.283;-0.345;-0.22500:00:08.286;-0.355;-0.25500:00:08.288;-0.395;-0.29500:00:08.291;-0.450;-0.33000:00:08.294;-0.480;-0.34000:00:08.297;-0.505;-0.30500:00:08.300;-0.525;-0.19500:00:08.302;-0.545;-0.06500:00:08.305;-0.500;0.07000:00:08.308;-0.395;0.18000:00:08.311;-0.255;0.28500:00:08.313;-0.070;0.41500:00:08.316;0.145;0.55500:00:08.319;0.425;0.67000:00:08.322;0.685;0.70000:00:08.325;0.875;0.55500:00:08.327;0.925;0.21000:00:08.330;0.795;-0.12500:00:08.333;0.470;-0.26500:00:08.336;0.020;-0.24000:00:08.338;-0.325;-0.21500:00:08.341;-0.470;-0.21500:00:08.344;-0.485;-0.23000:00:08.347;-0.410;-0.22000:00:08.350;-0.365;-0.21000:00:08.352;-0.355;-0.23500:00:08.355;-0.365;-0.23500:00:08.358;-0.380;-0.23500:00:08.361;-0.385;-0.23000:00:08.363;-0.380;-0.22500:00:08.366;-0.370;-0.21000:00:08.369;-0.370;-0.21500:00:08.372;-0.375;-0.22500:00:08.375;-0.385;-0.24000:00:08.377;-0.395;-0.25000:00:08.380;-0.385;-0.23000:00:08.383;-0.380;-0.23000:00:08.386;-0.385;-0.22500:00:08.388;-0.375;-0.23000:00:08.391;-0.390;-0.24000:00:08.394;-0.405;-0.23500:00:08.397;-0.405;-0.23000:00:08.400;-0.390;-0.22500:00:08.402;-0.385;-0.23000:00:08.405;-0.385;-0.24500:00:08.408;-0.390;-0.23500:00:08.411;-0.410;-0.23500:00:08.413;-0.400;-0.22000:00:08.416;-0.390;-0.22000:00:08.419;-0.385;-0.22500:00:08.422;-0.385;-0.23000:00:08.425;-0.395;-0.24500:00:08.427;-0.390;-0.22500:00:08.430;-0.395;-0.22000:00:08.433;-0.380;-0.21000:00:08.436;-0.375;-0.21000:00:08.438;-0.380;-0.22000:00:08.441;-0.385;-0.24000:00:08.444;-0.400;-0.23500:00:08.447;-0.385;-0.22500:00:08.450;-0.380;-0.21000:00:08.452;-0.375;-0.20000:00:08.455;-0.380;-0.22500:00:08.458;-0.395;-0.22500:00:08.461;-0.395;-0.22500:00:08.463;-0.385;-0.22500:00:08.466;-0.375;-0.21500:00:08.469;-0.370;-0.21500:00:08.472;-0.365;-0.23500:00:08.475;-0.385;-0.24000:00:08.477;-0.395;-0.24000:00:08.480;-0.385;-0.23500:00:08.483;-0.385;-0.22000:00:08.486;-0.370;-0.22500:00:08.488;-0.375;-0.23500:00:08.491;-0.370;-0.24500:00:08.494;-0.375;-0.24500:00:08.497;-0.375;-0.23000:00:08.500;-0.370;-0.22500:00:08.502;-0.355;-0.22000:00:08.505;-0.365;-0.24500:00:08.508;-0.380;-0.25000:00:08.511;-0.375;-0.25500:00:08.513;-0.370;-0.25500:00:08.516;-0.380;-0.24000:00:08.519;-0.365;-0.25000:00:08.522;-0.370;-0.26000:00:08.525;-0.375;-0.27500:00:08.527;-0.390;-0.28500:00:08.530;-0.380;-0.27500:00:08.533;-0.375;-0.28000:00:08.536;-0.380;-0.29000:00:08.538;-0.370;-0.30000:00:08.541;-0.375;-0.30500:00:08.544;-0.380;-0.31500:00:08.547;-0.385;-0.31000:00:08.550;-0.385;-0.31500:00:08.552;-0.370;-0.32500:00:08.555;-0.375;-0.33500:00:08.558;-0.375;-0.35000:00:08.561;-0.380;-0.34500:00:08.563;-0.380;-0.34000:00:08.566;-0.380;-0.33500:00:08.569;-0.380;-0.35000:00:08.572;-0.375;-0.36000:00:08.575;-0.390;-0.37000:00:08.577;-0.395;-0.36500:00:08.580;-0.385;-0.36000:00:08.583;-0.385;-0.34500:00:08.586;-0.375;-0.34000:00:08.588;-0.375;-0.35000:00:08.591;-0.385;-0.35500:00:08.594;-0.385;-0.34500:00:08.597;-0.390;-0.32500:00:08.600;-0.370;-0.30500:00:08.602;-0.365;-0.30000:00:08.605;-0.365;-0.28500:00:08.608;-0.375;-0.28500:00:08.611;-0.385;-0.28000:00:08.613;-0.350;-0.26500:00:08.616;-0.345;-0.23000:00:08.619;-0.325;-0.23500:00:08.622;-0.325;-0.24000:00:08.625;-0.330;-0.24500:00:08.627;-0.325;-0.22500:00:08.630;-0.325;-0.21500:00:08.633;-0.315;-0.19500:00:08.636;-0.315;-0.18000:00:08.638;-0.315;-0.18000:00:08.641;-0.300;-0.19000:00:08.644;-0.300;-0.18000:00:08.647;-0.285;-0.16500:00:08.650;-0.270;-0.14000:00:08.652;-0.265;-0.15500:00:08.655;-0.260;-0.16500:00:08.658;-0.275;-0.16000:00:08.661;-0.285;-0.15500:00:08.663;-0.265;-0.14500:00:08.666;-0.255;-0.13500:00:08.669;-0.250;-0.15000:00:08.672;-0.270;-0.16500:00:08.675;-0.280;-0.17000:00:08.677;-0.285;-0.15000:00:08.680;-0.285;-0.14500:00:08.683;-0.280;-0.14500:00:08.686;-0.270;-0.14500:00:08.688;-0.270;-0.16000:00:08.691;-0.270;-0.17000:00:08.694;-0.285;-0.17000:00:08.697;-0.280;-0.15500:00:08.700;-0.275;-0.13500:00:08.702;-0.270;-0.14500:00:08.705;-0.265;-0.15500:00:08.708;-0.275;-0.16500:00:08.711;-0.290;-0.18000:00:08.713;-0.285;-0.16500:00:08.716;-0.285;-0.15000:00:08.719;-0.275;-0.16000:00:08.722;-0.270;-0.15000:00:08.725;-0.280;-0.17000:00:08.727;-0.295;-0.17500:00:08.730;-0.280;-0.16500:00:08.733;-0.270;-0.15500:00:08.736;-0.270;-0.16500:00:08.738;-0.275;-0.17500:00:08.741;-0.285;-0.18000:00:08.744;-0.300;-0.17500:00:08.747;-0.295;-0.16500:00:08.750;-0.290;-0.16000:00:08.752;-0.295;-0.16500:00:08.755;-0.300;-0.18500:00:08.758;-0.290;-0.19500:00:08.761;-0.305;-0.18500:00:08.763;-0.295;-0.18500:00:08.766;-0.290;-0.17000:00:08.769;-0.295;-0.17500:00:08.772;-0.290;-0.17000:00:08.775;-0.310;-0.18500:00:08.777;-0.320;-0.18000:00:08.780;-0.315;-0.18500:00:08.783;-0.315;-0.18000:00:08.786;-0.300;-0.17500:00:08.788;-0.305;-0.18500:00:08.791;-0.315;-0.19000:00:08.794;-0.330;-0.18500:00:08.797;-0.320;-0.17000:00:08.800;-0.305;-0.16000:00:08.802;-0.315;-0.18500:00:08.805;-0.305;-0.18500:00:08.808;-0.315;-0.19000:00:08.811;-0.325;-0.20000:00:08.813;-0.310;-0.19500:00:08.816;-0.295;-0.16500:00:08.819;-0.300;-0.17500:00:08.822;-0.305;-0.18000:00:08.825;-0.310;-0.19000:00:08.827;-0.325;-0.19500:00:08.830;-0.315;-0.19000:00:08.833;-0.315;-0.16000:00:08.836;-0.305;-0.17500:00:08.838;-0.305;-0.16500:00:08.841;-0.325;-0.18500:00:08.844;-0.320;-0.18000:00:08.847;-0.320;-0.18000:00:08.850;-0.310;-0.15500:00:08.852;-0.305;-0.17000:00:08.855;-0.320;-0.18000:00:08.858;-0.320;-0.18000:00:08.861;-0.320;-0.18500:00:08.863;-0.310;-0.16500:00:08.866;-0.305;-0.15000:00:08.869;-0.290;-0.16000:00:08.872;-0.285;-0.16500:00:08.875;-0.290;-0.18000:00:08.877;-0.305;-0.18000:00:08.880;-0.310;-0.16500:00:08.883;-0.300;-0.15000:00:08.886;-0.300;-0.15500:00:08.888;-0.310;-0.15500:00:08.891;-0.315;-0.17000:00:08.894;-0.315;-0.17500:00:08.897;-0.310;-0.16500:00:08.900;-0.295;-0.15500:00:08.902;-0.300;-0.15000:00:08.905;-0.295;-0.15500:00:08.908;-0.315;-0.16500:00:08.911;-0.310;-0.16500:00:08.913;-0.290;-0.16000:00:08.916;-0.265;-0.16000:00:08.919;-0.240;-0.16500:00:08.922;-0.255;-0.17000:00:08.925;-0.240;-0.17500:00:08.927;-0.250;-0.16000:00:08.930;-0.225;-0.13500:00:08.933;-0.225;-0.14000:00:08.936;-0.215;-0.14500:00:08.938;-0.210;-0.14000:00:08.941;-0.200;-0.14500:00:08.944;-0.195;-0.13500:00:08.947;-0.195;-0.12500:00:08.950;-0.180;-0.11500:00:08.952;-0.175;-0.11500:00:08.955;-0.180;-0.12500:00:08.958;-0.205;-0.13000:00:08.961;-0.215;-0.10500:00:08.963;-0.210;-0.09500:00:08.966;-0.210;-0.09500:00:08.969;-0.210;-0.09500:00:08.972;-0.210;-0.09500:00:08.975;-0.215;-0.09500:00:08.977;-0.225;-0.11500:00:08.980;-0.210;-0.12000:00:08.983;-0.180;-0.12000:00:08.986;-0.170;-0.13000:00:08.988;-0.185;-0.13500:00:08.991;-0.240;-0.12500:00:08.994;-0.255;-0.14000:00:08.997;-0.255;-0.13500:00:09.000;-0.270;-0.12000:00:09.002;-0.275;-0.15000:00:09.005;-0.285;-0.15000:00:09.008;-0.300;-0.15500:00:09.011;-0.300;-0.16000:00:09.013;-0.315;-0.14500:00:09.016;-0.305;-0.14000:00:09.019;-0.300;-0.14500:00:09.022;-0.295;-0.14500:00:09.025;-0.300;-0.16000:00:09.027;-0.315;-0.16500:00:09.030;-0.310;-0.15500:00:09.033;-0.310;-0.14500:00:09.036;-0.300;-0.15500:00:09.038;-0.300;-0.15500:00:09.041;-0.305;-0.17000:00:09.044;-0.315;-0.16500:00:09.047;-0.325;-0.16000:00:09.050;-0.320;-0.15500:00:09.052;-0.320;-0.16000:00:09.055;-0.320;-0.17000:00:09.058;-0.325;-0.17000:00:09.061;-0.340;-0.16500:00:09.063;-0.335;-0.16500:00:09.066;-0.325;-0.14500:00:09.069;-0.315;-0.17000:00:09.072;-0.320;-0.19000:00:09.075;-0.345;-0.22500:00:09.077;-0.370;-0.25000:00:09.080;-0.395;-0.27000:00:09.083;-0.425;-0.28000:00:09.086;-0.445;-0.30500:00:09.088;-0.465;-0.29000:00:09.091;-0.510;-0.20000:00:09.094;-0.530;-0.07500:00:09.097;-0.485;0.04000:00:09.100;-0.370;0.13500:00:09.102;-0.235;0.21500:00:09.105;-0.090;0.32000:00:09.108;0.105;0.43500:00:09.111;0.375;0.54000:00:09.113;0.655;0.58000:00:09.116;0.820;0.46500:00:09.119;0.865;0.14500:00:09.122;0.735;-0.15500:00:09.125;0.450;-0.28500:00:09.127;0.060;-0.25000:00:09.130;-0.270;-0.20000:00:09.133;-0.430;-0.18000:00:09.136;-0.460;-0.19000:00:09.138;-0.415;-0.19000:00:09.141;-0.385;-0.18500:00:09.144;-0.365;-0.19500:00:09.147;-0.355;-0.18500:00:09.150;-0.355;-0.17500:00:09.152;-0.345;-0.19000:00:09.155;-0.350;-0.19500:00:09.158;-0.350;-0.20500:00:09.161;-0.360;-0.20500:00:09.163;-0.345;-0.18500:00:09.166;-0.340;-0.16500:00:09.169;-0.340;-0.18500:00:09.172;-0.335;-0.19000:00:09.175;-0.335;-0.21000:00:09.177;-0.355;-0.21000:00:09.180;-0.345;-0.20000:00:09.183;-0.340;-0.19000:00:09.186;-0.335;-0.18500:00:09.188;-0.340;-0.19500:00:09.191;-0.350;-0.21000:00:09.194;-0.365;-0.21000:00:09.197;-0.360;-0.19000:00:09.200;-0.365;-0.18000:00:09.202;-0.350;-0.19000:00:09.205;-0.345;-0.19500:00:09.208;-0.365;-0.21500:00:09.211;-0.360;-0.21500:00:09.213;-0.350;-0.19500:00:09.216;-0.355;-0.18500:00:09.219;-0.350;-0.18000:00:09.222;-0.355;-0.18500:00:09.225;-0.350;-0.20000:00:09.227;-0.360;-0.20500:00:09.230;-0.335;-0.19000:00:09.233;-0.335;-0.18000:00:09.236;-0.330;-0.18500:00:09.238;-0.340;-0.19500:00:09.241;-0.350;-0.19500:00:09.244;-0.350;-0.19500:00:09.247;-0.345;-0.19000:00:09.250;-0.335;-0.18500:00:09.252;-0.345;-0.19500:00:09.255;-0.355;-0.19500:00:09.258;-0.355;-0.20500:00:09.261;-0.370;-0.20000:00:09.263;-0.355;-0.19000:00:09.266;-0.350;-0.18500:00:09.269;-0.345;-0.19500:00:09.272;-0.365;-0.21000:00:09.275;-0.365;-0.21500:00:09.277;-0.370;-0.21500:00:09.280;-0.365;-0.20500:00:09.283;-0.355;-0.19000:00:09.286;-0.345;-0.19000:00:09.288;-0.345;-0.20500:00:09.291;-0.345;-0.22000:00:09.294;-0.340;-0.21500:00:09.297;-0.335;-0.20500:00:09.300;-0.325;-0.21000:00:09.302;-0.335;-0.22000:00:09.305;-0.345;-0.23000:00:09.308;-0.350;-0.24000:00:09.311;-0.350;-0.25500:00:09.313;-0.355;-0.24000:00:09.316;-0.355;-0.22500:00:09.319;-0.360;-0.23000:00:09.322;-0.350;-0.25000:00:09.325;-0.360;-0.25000:00:09.327;-0.365;-0.26000:00:09.330;-0.345;-0.26000:00:09.333;-0.345;-0.25500:00:09.336;-0.330;-0.26000:00:09.338;-0.350;-0.28500:00:09.341;-0.345;-0.29500:00:09.344;-0.355;-0.30000:00:09.347;-0.350;-0.28500:00:09.350;-0.340;-0.28000:00:09.352;-0.335;-0.29000:00:09.355;-0.350;-0.30500:00:09.358;-0.365;-0.31500:00:09.361;-0.380;-0.32000:00:09.363;-0.385;-0.31000:00:09.366;-0.355;-0.30500:00:09.369;-0.360;-0.31000:00:09.372;-0.355;-0.32000:00:09.375;-0.370;-0.32500:00:09.377;-0.385;-0.33500:00:09.380;-0.370;-0.32000:00:09.383;-0.370;-0.30000:00:09.386;-0.350;-0.30000:00:09.388;-0.345;-0.30000:00:09.391;-0.365;-0.28500:00:09.394;-0.365;-0.28000:00:09.397;-0.360;-0.26000:00:09.400;-0.345;-0.24000:00:09.402;-0.330;-0.23500:00:09.405;-0.330;-0.22500:00:09.408;-0.330;-0.23000:00:09.411;-0.335;-0.22500:00:09.413;-0.315;-0.19000:00:09.416;-0.310;-0.18000:00:09.419;-0.285;-0.18500:00:09.422;-0.290;-0.18000:00:09.425;-0.290;-0.19500:00:09.427;-0.300;-0.18000:00:09.430;-0.280;-0.17000:00:09.433;-0.275;-0.16000:00:09.436;-0.260;-0.17000:00:09.438;-0.260;-0.17000:00:09.441;-0.270;-0.18000:00:09.444;-0.265;-0.18000:00:09.447;-0.255;-0.17000:00:09.450;-0.250;-0.15500:00:09.452;-0.245;-0.15500:00:09.455;-0.245;-0.16000:00:09.458;-0.255;-0.18000:00:09.461;-0.265;-0.17500:00:09.463;-0.260;-0.16500:00:09.466;-0.255;-0.16000:00:09.469;-0.240;-0.17000:00:09.472;-0.250;-0.17500:00:09.475;-0.255;-0.19000:00:09.477;-0.275;-0.19000:00:09.480;-0.275;-0.17500:00:09.483;-0.265;-0.16500:00:09.486;-0.270;-0.17500:00:09.488;-0.275;-0.18000:00:09.491;-0.280;-0.18500:00:09.494;-0.290;-0.18500:00:09.497;-0.280;-0.18500:00:09.500;-0.275;-0.16500:00:09.502;-0.270;-0.18500:00:09.505;-0.270;-0.18500:00:09.508;-0.280;-0.20500:00:09.511;-0.290;-0.21000:00:09.513;-0.280;-0.19500:00:09.516;-0.285;-0.17000:00:09.519;-0.275;-0.18000:00:09.522;-0.290;-0.18500:00:09.525;-0.280;-0.19000:00:09.527;-0.290;-0.20000:00:09.530;-0.280;-0.20000:00:09.533;-0.285;-0.19500:00:09.536;-0.275;-0.20000:00:09.538;-0.280;-0.20500:00:09.541;-0.295;-0.21000:00:09.544;-0.305;-0.21500:00:09.547;-0.300;-0.20500:00:09.550;-0.300;-0.20500:00:09.552;-0.305;-0.22000:00:09.555;-0.315;-0.21500:00:09.558;-0.320;-0.22500:00:09.561;-0.310;-0.21500:00:09.563;-0.310;-0.21000:00:09.566;-0.300;-0.19000:00:09.569;-0.310;-0.20500:00:09.572;-0.310;-0.21500:00:09.575;-0.320;-0.22000:00:09.577;-0.325;-0.22500:00:09.580;-0.310;-0.21000:00:09.583;-0.320;-0.20000:00:09.586;-0.310;-0.20500:00:09.588;-0.310;-0.21500:00:09.591;-0.315;-0.22000:00:09.594;-0.325;-0.22500:00:09.597;-0.315;-0.21500:00:09.600;-0.305;-0.20500:00:09.602;-0.315;-0.19500:00:09.605;-0.310;-0.21500:00:09.608;-0.320;-0.23000:00:09.611;-0.325;-0.23500:00:09.613;-0.325;-0.22000:00:09.616;-0.320;-0.20500:00:09.619;-0.305;-0.22000:00:09.622;-0.305;-0.23000:00:09.625;-0.300;-0.24000:00:09.627;-0.315;-0.23500:00:09.630;-0.300;-0.21500:00:09.633;-0.310;-0.21000:00:09.636;-0.315;-0.20500:00:09.638;-0.305;-0.20500:00:09.641;-0.310;-0.21000:00:09.644;-0.320;-0.21500:00:09.647;-0.310;-0.22000:00:09.650;-0.300;-0.20500:00:09.652;-0.295;-0.22000:00:09.655;-0.300;-0.23000:00:09.658;-0.315;-0.22500:00:09.661;-0.325;-0.22500:00:09.663;-0.325;-0.19500:00:09.666;-0.305;-0.19500:00:09.669;-0.310;-0.22000:00:09.672;-0.290;-0.23000:00:09.675;-0.315;-0.25000:00:09.677;-0.325;-0.24000:00:09.680;-0.320;-0.22500:00:09.683;-0.290;-0.21000:00:09.686;-0.280;-0.21000:00:09.688;-0.260;-0.23000:00:09.691;-0.260;-0.23500:00:09.694;-0.265;-0.24000:00:09.697;-0.260;-0.21000:00:09.700;-0.250;-0.19500:00:09.702;-0.230;-0.19500:00:09.705;-0.220;-0.19000:00:09.708;-0.220;-0.20000:00:09.711;-0.235;-0.19500:00:09.713;-0.220;-0.18000:00:09.716;-0.205;-0.18000:00:09.719;-0.205;-0.19000:00:09.722;-0.210;-0.19000:00:09.725;-0.210;-0.18000:00:09.727;-0.230;-0.18500:00:09.730;-0.240;-0.16500:00:09.733;-0.230;-0.16500:00:09.736;-0.225;-0.17500:00:09.738;-0.235;-0.18500:00:09.741;-0.250;-0.20000:00:09.744;-0.265;-0.19500:00:09.747;-0.260;-0.18500:00:09.750;-0.245;-0.18000:00:09.752;-0.215;-0.19500:00:09.755;-0.215;-0.19500:00:09.758;-0.245;-0.21500:00:09.761;-0.280;-0.20000:00:09.763;-0.275;-0.21000:00:09.766;-0.275;-0.19500:00:09.769;-0.295;-0.22500:00:09.772;-0.310;-0.23500:00:09.775;-0.325;-0.24500:00:09.777;-0.340;-0.24500:00:09.780;-0.340;-0.22000:00:09.783;-0.325;-0.23000:00:09.786;-0.315;-0.22000:00:09.788;-0.310;-0.22500:00:09.791;-0.315;-0.24000:00:09.794;-0.330;-0.22500:00:09.797;-0.330;-0.21000:00:09.800;-0.325;-0.22000:00:09.802;-0.325;-0.23000:00:09.805;-0.335;-0.23000:00:09.808;-0.345;-0.24000:00:09.811;-0.350;-0.24500:00:09.813;-0.350;-0.24500:00:09.816;-0.350;-0.24000:00:09.819;-0.345;-0.23500:00:09.822;-0.350;-0.24000:00:09.825;-0.365;-0.25500:00:09.827;-0.360;-0.25500:00:09.830;-0.350;-0.25000:00:09.833;-0.355;-0.23000:00:09.836;-0.345;-0.24000:00:09.838;-0.345;-0.25000:00:09.841;-0.350;-0.26500:00:09.844;-0.365;-0.29000:00:09.847;-0.380;-0.31000:00:09.850;-0.405;-0.30500:00:09.852;-0.425;-0.33500:00:09.855;-0.440;-0.35500:00:09.858;-0.470;-0.33500:00:09.861;-0.520;-0.27000:00:09.863;-0.540;-0.16000:00:09.866;-0.490;-0.05000:00:09.869;-0.390;0.01000:00:09.872;-0.260;0.06500:00:09.875;-0.115;0.13500:00:09.877;0.085;0.24000:00:09.880;0.360;0.35500:00:09.883;0.615;0.39500:00:09.886;0.780;0.25500:00:09.888;0.835;-0.01500:00:09.891;0.720;-0.29500:00:09.894;0.410;-0.40500:00:09.897;0.030;-0.39000:00:09.900;-0.255;-0.34000:00:09.902;-0.415;-0.30500:00:09.905;-0.470;-0.31000:00:09.908;-0.465;-0.29500:00:09.911;-0.435;-0.29500:00:09.913;-0.395;-0.28000:00:09.916;-0.375;-0.27000:00:09.919;-0.370;-0.26500:00:09.922;-0.375;-0.28500:00:09.925;-0.375;-0.29000:00:09.927;-0.390;-0.29000:00:09.930;-0.400;-0.29000:00:09.933;-0.380;-0.28500:00:09.936;-0.385;-0.29000:00:09.938;-0.385;-0.29000:00:09.941;-0.385;-0.28500:00:09.944;-0.385;-0.28500:00:09.947;-0.370;-0.28500:00:09.950;-0.370;-0.26500:00:09.952;-0.360;-0.26500:00:09.955;-0.380;-0.27500:00:09.958;-0.380;-0.28500:00:09.961;-0.385;-0.28000:00:09.963;-0.370;-0.27000:00:09.966;-0.370;-0.27000:00:09.969;-0.365;-0.27500:00:09.972;-0.375;-0.27000:00:09.975;-0.385;-0.28500:00:09.977;-0.390;-0.30000:00:09.980;-0.390;-0.28000:00:09.983;-0.385;-0.27500:00:09.986;-0.385;-0.28500:00:09.988;-0.395;-0.28500:00:09.991;-0.390;-0.29500:00:09.994;-0.400;-0.29000:00:09.997;-0.405;-0.285
