-0.085
-0.08
-0.07
-0.075
-0.095
-0.09
-0.1
-0.1
-0.1
-0.085
-0.06
-0.045
-0.055
-0.06
-0.07
-0.08
-0.085
-0.08
-0.07
-0.04
-0.05
-0.045
-0.04
-0.04
-0.055
-0.06
-0.055
-0.055
-0.055
-0.045
-0.04
-0.045
-0.04
-0.03
-0.035
-0.045
-0.055
-0.055
-0.05
-0.02
-0.015
-0.01
0.005
0
-0.005
-0.025
-0.035
-0.03
-0.03
-0.015
-0.005
0
0.01
0.02
0
-0.005
0.005
0.005
0.01
0.025
0.04
0.055
0.06
0.045
0.04
0.045
0.04
0.04
0.07
0.075
0.09
0.105
0.105
0.115
0.105
0.1
0.1
0.095
0.125
0.155
0.16
0.16
0.175
0.175
0.155
0.16
0.15
0.15
0.16
0.18
0.19
0.19
0.2
0.19
0.18
0.175
0.165
0.16
0.165
0.155
0.165
0.165
0.17
0.145
0.135
0.11
0.09
0.07
0.075
0.085
0.085
0.07
0.07
0.05
0.04
0.025
0.005
-0.005
0
0
0.005
0.01
0
0.01
0.015
0.03
0.035
0.045
0.065
0.085
0.09
0.12
0.115
0.09
0.085
0.07
0.08
0.08
0.09
0.095
0.11
0.115
0.13
0.115
0.1
0.095
0.095
0.095
0.1
0.11
0.12
0.125
0.14
0.135
0.115
0.115
0.115
0.115
0.125
0.13
0.125
0.14
0.14
0.14
0.13
0.105
0.1
0.1
0.13
0.14
0.135
0.15
0.145
0.13
0.125
0.125
0.115
0.12
0.125
0.14
0.14
0.15
0.145
0.14
0.135
0.14
0.125
0.125
0.135
0.145
0.145
0.14
0.135
0.12
0.12
0.11
0.115
0.12
0.135
0.135
0.13
0.135
0.13
0.11
0.11
0.11
0.105
0.115
0.125
0.13
0.115
0.12
0.115
0.105
0.1
0.105
0.09
0.1
0.105
0.11
0.12
0.135
0.12
0.11
0.095
0.1
0.095
0.1
0.11
0.11
0.115
0.115
0.095
0.08
0.075
0.07
0.07
0.075
0.09
0.085
0.1
0.125
0.11
0.105
0.075
0.08
0.065
0.075
0.08
0.09
0.1
0.115
0.105
0.09
0.085
0.09
0.085
0.095
0.11
0.135
0.13
0.135
0.125
0.12
0.11
0.105
0.095
0.11
0.14
0.135
0.14
0.14
0.13
0.125
0.12
0.105
0.1
0.12
0.15
0.16
0.16
0.17
0.16
0.12
0.115
0.115
0.095
0.095
0.1
0.095
0.09
0.09
0.085
0.055
0.065
0.06
0.065
0.075
0.08
0.08
0.095
0.075
0.055
0.05
0.045
0.035
0.045
0.045
0.055
0.06
0.06
0.06
0.06
0.05
0.035
0.02
0.025
0.035
0.045
0.055
0.06
0.055
0.035
0.025
0.03
0.02
0.03
0.05
0.03
0.04
0.05
0.04
0.025
0
-0.01
-0.025
-0.03
-0.025
-0.015
-0.005
0.03
0.065
0.11
0.16
0.2
0.255
0.335
0.425
0.53
0.645
0.72
0.735
0.685
0.63
0.57
0.485
0.41
0.335
0.23
0.1
0.01
-0.06
-0.1
-0.1
-0.09
-0.085
-0.06
-0.02
0.01
0.035
0.04
0.035
0.015
-0.005
-0.02
-0.025
-0.01
0
0.005
0.025
0.025
0.02
0
0.005
-0.015
-0.02
-0.01
-0.01
0
0.01
0
0.005
0.005
-0.005
0
-0.01
0
0.015
0.02
0.025
0.04
0.025
0.01
0
-0.005
-0.005
0.005
0.025
0.025
0.03
0.025
0.01
0.02
0.005
0.01
0.005
0.015
0.02
0.035
0.04
0.05
0.05
0.045
0.04
0.025
0.03
0.03
0.04
0.045
0.055
0.06
0.065
0.065
0.07
0.07
0.065
0.08
0.095
0.105
0.105
0.12
0.115
0.115
0.11
0.1
0.1
0.115
0.13
0.15
0.155
0.16
0.15
0.16
0.165
0.155
0.16
0.175
0.2
0.205
0.21
0.205
0.195
0.185
0.18
0.18
0.18
0.18
0.2
0.205
0.205
0.195
0.17
0.15
0.135
0.13
0.125
0.13
0.115
0.13
0.13
0.115
0.095
0.08
0.07
0.055
0.03
0.015
0.025
0.025
0.02
0.01
-0.005
-0.02
-0.025
-0.035
-0.03
-0.01
0
-0.01
-0.005
-0.01
-0.03
-0.04
-0.055
-0.065
-0.055
-0.04
-0.045
-0.025
-0.035
-0.03
-0.05
-0.055
-0.06
-0.06
-0.045
-0.045
-0.035
-0.02
-0.03
-0.03
-0.05
-0.055
-0.055
-0.06
-0.055
-0.05
-0.04
-0.055
-0.03
-0.055
-0.05
-0.05
-0.06
-0.06
-0.045
-0.04
-0.04
-0.04
-0.04
-0.05
-0.055
-0.055
-0.06
-0.055
-0.03
-0.03
-0.025
-0.02
-0.015
-0.025
-0.035
-0.045
-0.05
-0.055
-0.045
-0.04
-0.02
-0.015
-0.01
-0.015
-0.02
-0.03
-0.035
-0.04
-0.03
-0.03
-0.025
-0.015
-0.015
-0.025
-0.02
-0.035
-0.04
-0.045
-0.045
-0.03
-0.025
-0.005
-0.01
-0.03
-0.03
-0.035
-0.05
-0.06
-0.04
-0.04
-0.03
-0.02
-0.025
-0.04
-0.045
-0.02
-0.05
-0.055
-0.04
-0.03
-0.035
-0.015
-0.02
-0.04
-0.05
-0.055
-0.06
-0.06
-0.055
-0.04
-0.04
-0.035
-0.02
-0.035
-0.045
-0.05
-0.07
-0.07
-0.05
-0.045
-0.035
-0.035
-0.035
-0.045
-0.055
-0.05
-0.05
-0.04
-0.035
-0.025
-0.005
-0.01
-0.025
-0.04
-0.03
-0.035
-0.04
-0.04
-0.025
-0.015
-0.01
0.015
-0.005
-0.005
-0.015
-0.02
-0.025
-0.025
-0.01
0.005
0.015
0.02
0.015
0.005
0.005
0
0
0
0
0.005
0.02
0.03
0.02
-0.01
-0.025
-0.035
-0.055
-0.05
-0.045
-0.04
-0.045
-0.025
-0.035
-0.06
-0.06
-0.07
-0.08
-0.065
-0.055
-0.05
-0.05
-0.035
-0.055
-0.055
-0.06
-0.065
-0.065
-0.06
-0.065
-0.065
-0.065
-0.065
-0.065
-0.08
-0.085
-0.08
-0.1
-0.09
-0.08
-0.06
-0.045
-0.045
-0.055
-0.06
-0.085
-0.085
-0.1
-0.1
-0.08
-0.075
-0.07
-0.075
-0.095
-0.105
-0.115
-0.14
-0.155
-0.135
-0.105
-0.045
0.02
0.075
0.125
0.17
0.225
0.275
0.39
0.515
0.64
0.69
0.66
0.615
0.555
0.485
0.39
0.305
0.195
0.085
-0.03
-0.115
-0.155
-0.145
-0.125
-0.115
-0.11
-0.085
-0.05
-0.055
-0.03
-0.035
-0.045
-0.04
-0.04
-0.065
-0.07
-0.08
-0.075
-0.07
-0.06
-0.05
-0.03
-0.045
-0.045
-0.055
-0.06
-0.055
-0.06
-0.04
-0.035
-0.025
-0.01
-0.025
-0.045
-0.05
-0.055
-0.05
-0.055
-0.03
-0.025
-0.02
-0.01
-0.01
-0.02
-0.03
-0.025
-0.02
-0.015
0.005
0.02
0.025
0.025
0.015
0.005
-0.01
-0.01
-0.01
0.01
0.015
0.025
0.045
0.06
0.065
0.05
0.04
0.045
0.04
0.045
0.045
0.06
0.065
0.07
0.065
0.065
0.065
0.065
0.075
0.08
0.1
0.115
0.125
0.13
0.14
0.14
0.15
0.135
0.13
0.14
0.17
0.175
0.19
0.2
0.205
0.19
0.2
0.2
0.195
0.21
0.225
0.235
0.23
0.24
0.225
0.225
0.205
0.2
0.19
0.19
0.205
0.205
0.22
0.23
0.205
0.195
0.175
0.165
0.155
0.15
0.14
0.135
0.13
0.11
0.105
0.085
0.075
0.065
0.06
0.065
0.06
0.06
0.05
0.045
0.04
0.02
0.01
0
0
0.01
0.015
0.01
0.02
0.01
0
-0.02
-0.02
-0.04
-0.035
-0.025
-0.015
-0.005
0.005
-0.005
-0.02
-0.025
-0.025
-0.025
-0.025
-0.025
-0.01
0.005
0.015
0.01
0.005
-0.02
-0.015
-0.015
-0.02
-0.025
-0.02
-0.02
0
0.015
-0.005
-0.01
-0.02
-0.03
-0.03
-0.015
0
0.01
0.015
0.015
-0.005
-0.01
-0.035
-0.025
-0.025
-0.02
0.005
0.015
0.02
0.025
0
-0.01
-0.025
-0.035
-0.02
-0.01
0.005
0.005
0.01
0.015
0
-0.005
-0.02
-0.025
-0.025
-0.015
0
0.005
0.015
0.02
0
-0.015
-0.02
-0.03
-0.025
-0.005
-0.005
0
0.01
0.015
0.005
-0.01
-0.015
-0.02
-0.015
-0.005
-0.005
-0.005
-0.01
-0.01
-0.01
-0.015
-0.025
-0.025
-0.02
-0.01
-0.01
-0.005
-0.005
-0.01
-0.025
-0.025
-0.025
-0.035
-0.03
-0.02
-0.01
-0.005
-0.01
-0.015
-0.025
-0.03
-0.035
-0.04
-0.025
-0.02
-0.015
-0.005
0
-0.01
-0.025
-0.03
-0.045
-0.045
-0.045
-0.035
-0.04
-0.025
-0.01
-0.025
-0.04
-0.04
-0.03
-0.035
-0.04
-0.025
-0.02
-0.015
-0.005
-0.01
-0.025
-0.04
-0.045
-0.04
-0.02
-0.015
-0.01
0
-0.005
-0.01
-0.01
-0.015
0
0.01
0.025
0.065
0.07
0.085
0.1
0.1
0.09
0.09
0.095
0.085
0.1
0.105
0.11
0.12
0.125
0.13
0.145
0.155
0.145
0.135
0.15
0.165
0.18
0.185
0.175
0.17
0.165
0.175
0.17
0.16
0.17
0.17
0.17
0.165
0.16
0.15
0.135
0.115
0.115
0.105
0.11
0.12
0.125
0.13
0.14
0.125
0.125
0.12
0.11
0.095
0.095
0.095
0.105
0.115
0.12
0.105
0.095
0.08
0.075
0.075
0.09
0.11
0.115
0.12
0.125
0.095
0.08
0.07
0.06
0.085
0.1
0.1
0.105
0.115
0.105
0.095
0.085
0.075
0.07
0.08
0.075
0.08
0.09
0.08
0.09
0.055
0.045
0.02
0.02
0.04
0.07
0.115
0.175
0.235
0.28
0.325
0.385
0.445
0.555
0.68
0.82
0.89
0.86
0.84
0.775
0.695
0.595
0.505
0.395
0.265
0.155
0.05
0.01
0.035
0.04
0.04
0.055
0.06
0.075
0.095
0.12
0.13
0.125
0.13
0.12
0.105
0.09
0.085
0.09
0.105
0.11
0.11
0.12
0.13
0.125
0.11
0.09
0.075
0.08
0.095
0.115
0.115
0.115
0.14
0.11
0.1
0.095
0.085
0.1
0.12
0.13
0.135
0.14
0.145
0.13
0.115
0.11
0.105
0.11
0.13
0.14
0.15
0.155
0.165
0.135
0.115
0.11
0.115
0.11
0.13
0.135
0.14
0.155
0.165
0.16
0.15
0.145
0.145
0.135
0.14
0.165
0.17
0.175
0.17
0.17
0.165
0.175
0.16
0.165
0.18
0.21
0.215
0.225
0.225
0.215
0.21
0.22
0.2
0.225
0.25
0.255
0.26
0.27
0.27
0.27
0.265
0.265
0.25
0.265
0.265
0.28
0.295
0.295
0.29
0.29
0.285
0.28
0.26
0.26
0.255
0.26
0.26
0.27
0.26
0.235
0.22
0.19
0.17
0.17
0.15
0.155
0.16
0.15
0.13
0.12
0.095
0.095
0.075
0.08
0.075
0.075
0.065
0.065
0.035
0.03
0.02
0.015
-0.005
0
0.01
0.01
0.01
0.03
0.015
0.005
-0.01
-0.02
-0.03
-0.02
-0.015
-0.01
-0.005
0.01
-0.01
-0.005
-0.025
-0.055
-0.04
-0.035
-0.01
0
0.005
0.005
-0.005
-0.03
-0.035
-0.04
-0.03
-0.035
-0.03
-0.02
-0.015
-0.01
-0.025
-0.035
-0.055
-0.055
-0.05
-0.04
-0.025
-0.015
-0.02
-0.01
-0.025
-0.03
-0.035
-0.05
-0.055
-0.04
-0.04
-0.02
-0.015
-0.02
-0.03
-0.045
-0.05
-0.055
-0.055
-0.05
-0.02
-0.025
-0.025
-0.015
-0.035
-0.04
-0.04
-0.04
-0.04
-0.025
-0.035
-0.03
-0.025
-0.03
-0.045
-0.06
-0.06
-0.065
-0.06
-0.04
-0.03
-0.035
-0.03
-0.025
-0.045
-0.045
-0.065
-0.07
-0.065
-0.055
-0.05
-0.035
-0.03
-0.03
-0.045
-0.06
-0.065
-0.075
-0.07
-0.05
-0.05
-0.04
-0.03
-0.04
-0.045
-0.06
-0.06
-0.065
-0.075
-0.07
-0.06
-0.055
-0.045
-0.05
-0.055
-0.065
-0.065
-0.08
-0.065
-0.055
-0.04
-0.04
-0.03
-0.035
-0.05
-0.075
-0.075
-0.095
-0.09
-0.065
-0.055
-0.045
-0.045
-0.055
-0.07
-0.08
-0.075
-0.075
-0.065
-0.06
-0.055
-0.045
-0.04
-0.04
-0.055
-0.075
-0.075
-0.08
-0.065
-0.06
-0.055
-0.06
-0.045
-0.065
-0.075
-0.085
-0.09
-0.09
-0.075
-0.055
-0.03
-0.025
-0.045
-0.065
-0.075
-0.085
-0.09
-0.1
-0.085
-0.07
-0.06
-0.045
-0.04
-0.06
-0.07
-0.075
-0.085
-0.085
-0.07
-0.06
-0.06
-0.055
-0.05
-0.065
-0.075
-0.075
-0.08
-0.07
-0.06
-0.055
-0.055
-0.045
-0.04
-0.065
-0.08
-0.09
-0.07
-0.08
-0.07
-0.05
-0.045
-0.05
-0.045
-0.055
-0.07
-0.075
-0.07
-0.065
-0.06
-0.055
-0.055
-0.04
-0.045
-0.06
-0.055
-0.05
-0.065
-0.055
-0.04
-0.035
-0.015
-0.02
-0.03
-0.035
-0.05
-0.05
-0.05
-0.05
-0.04
-0.02
0.005
0.01
0.015
0
0
-0.015
-0.02
-0.02
-0.02
-0.005
0.01
0.045
0.025
0.005
0
-0.025
-0.045
-0.04
-0.025
-0.025
-0.03
-0.03
-0.05
-0.06
-0.075
-0.085
-0.09
-0.09
-0.07
-0.07
-0.055
-0.045
-0.055
-0.07
-0.08
-0.08
-0.09
-0.09
-0.08
-0.06
-0.06
-0.06
-0.08
-0.08
-0.085
-0.105
-0.11
-0.1
-0.08
-0.075
-0.065
-0.055
-0.07
-0.085
-0.1
-0.11
-0.105
-0.09
-0.085
-0.08
-0.075
-0.05
-0.08
-0.085
-0.09
-0.11
-0.12
-0.105
-0.095
-0.1
-0.1
-0.105
-0.125
-0.13
-0.125
-0.125
-0.09
-0.02
0.045
0.095
0.155
0.235
0.275
0.36
0.46
0.59
0.67
0.675
0.675
0.62
0.575
0.465
0.38
0.27
0.135
-0.01
-0.13
-0.18
-0.185
-0.15
-0.135
-0.11
-0.085
-0.07
-0.07
-0.075
-0.06
-0.05
-0.05
-0.035
-0.03
-0.035
-0.05
-0.06
-0.06
-0.06
-0.065
-0.05
-0.04
-0.03
-0.04
-0.03
-0.045
-0.065
-0.06
-0.065
-0.04
-0.04
-0.02
-0.01
-0.015
-0.015
-0.03
-0.045
-0.04
-0.055
-0.045
-0.03
-0.01
0.005
0.01
0
-0.025
-0.03
-0.035
-0.065
-0.04
-0.015
-0.015
-0.005
0.015
0.01
0.005
-0.005
-0.01
-0.015
0
-0.005
0
0.01
0.025
0.03
0.015
0.015
0
0.01
0.01
0.03
0.045
0.055
0.065
0.07
0.065
0.06
0.05
0.065
0.07
0.1
0.11
0.115
0.13
0.13
0.12
0.115
0.115
0.125
0.14
0.155
0.17
0.165
0.175
0.165
0.17
0.185
0.18
0.175
0.195
0.2
0.21
0.195
0.215
0.195
0.195
0.19
0.17
0.165
0.17
0.185
0.17
0.175
0.17
0.175
0.13
0.125
0.12
0.105
0.105
0.11
0.105
0.1
0.09
0.075
0.065
0.045
0.025
0.005
0.005
-0.005
0.005
0.005
0
-0.015
-0.025
-0.03
-0.045
-0.05
-0.05
-0.035
-0.035
-0.02
-0.02
-0.035
-0.04
-0.055
-0.055
-0.045
-0.04
-0.045
-0.05
-0.055
-0.055
-0.075
-0.075
-0.07
-0.075
-0.075
-0.06
-0.055
-0.055
-0.05
-0.045
-0.05
-0.06
-0.065
-0.08
-0.07
-0.06
-0.055
-0.035
-0.02
-0.025
-0.045
-0.07
-0.07
-0.075
-0.055
-0.045
-0.02
-0.035
-0.025
-0.025
-0.04
-0.055
-0.065
-0.07
-0.065
-0.045
-0.04
-0.04
-0.025
-0.01
-0.035
-0.045
-0.05
-0.065
-0.065
-0.05
-0.035
-0.035
-0.02
-0.015
-0.03
-0.035
-0.045
-0.05
-0.05
-0.03
-0.03
-0.03
-0.025
-0.01
-0.04
-0.035
-0.04
-0.05
-0.035
-0.035
-0.015
-0.025
-0.015
-0.015
-0.025
-0.04
-0.04
-0.05
-0.055
-0.04
-0.03
-0.025
-0.025
-0.03
-0.035
-0.06
-0.06
-0.07
-0.06
-0.035
-0.03
-0.01
-0.025
-0.025
-0.04
-0.055
-0.07
-0.075
-0.04
-0.045
-0.04
-0.045
-0.03
-0.035
-0.05
-0.055
-0.065
-0.07
-0.065
-0.06
-0.05
-0.04
-0.03
-0.045
-0.055
-0.05
-0.06
-0.07
-0.045
-0.04
-0.03
-0.025
-0.04
-0.04
-0.055
-0.055
-0.065
-0.065
-0.065
-0.06
-0.025
-0.03
-0.015
-0.04
-0.06
-0.065
-0.07
-0.075
-0.06
-0.05
-0.025
-0.025
-0.025
-0.03
-0.045
-0.055
-0.06
-0.08
-0.075
-0.07
-0.06
-0.035
-0.035
-0.055
-0.055
-0.065
-0.075
-0.075
-0.065
-0.045
-0.035
-0.025
-0.035
-0.035
-0.04
-0.045
-0.06
-0.06
-0.04
-0.035
-0.03
-0.02
-0.015
-0.03
-0.035
-0.04
-0.05
-0.045
-0.05
-0.025
0.005
0.01
0.02
0.03
0.035
0.03
0.035
0.025
0.04
0.045
0.055
0.065
0.075
0.065
0.055
0.045
0.04
0.055
0.065
0.09
0.105
0.125
0.13
0.095
0.09
0.1
0.09
0.095
0.1
0.11
0.125
0.135
0.145
0.145
0.13
0.135
0.12
0.125
0.125
0.135
0.145
0.155
0.17
0.16
0.165
0.165
0.155
0.155
0.16
0.155
0.165
0.18
0.165
0.16
0.16
0.16
0.14
0.13
0.14
0.14
0.135
0.135
0.13
0.11
0.11
0.095
0.09
0.095
0.105
0.12
0.125
0.12
0.11
0.105
0.09
0.085
0.07
0.085
0.105
0.1
0.105
0.1
0.095
0.08
0.07
0.075
0.055
0.07
0.07
0.08
0.085
0.1
0.085
0.065
0.06
0.05
0.05
0.055
0.07
0.08
0.085
0.085
0.07
0.065
0.065
0.045
0.065
0.065
0.065
0.07
0.06
0.07
0.06
0.035
0.03
0.04
0.055
0.085
0.13
0.185
0.235
0.29
0.33
0.395
0.5
0.605
0.705
0.755
0.755
0.74
0.695
0.615
0.515
0.43
0.325
0.19
0.07
-0.015
-0.045
-0.04
-0.02
0.015
0.025
0.025
0.04
0.06
0.085
0.09
0.1
0.12
0.11
0.09
0.075
0.07
0.065
0.07
0.07
0.085
0.09
0.105
0.105
0.11
0.095
0.095
0.085
0.085
0.085
0.1
0.11
0.12
0.13
0.11
0.09
0.075
0.07
0.07
0.075
0.095
0.115
0.125
0.13
0.125
0.115
0.105
0.1
0.105
0.11
0.12
0.125
0.125
0.13
0.13
0.105
0.105
0.12
0.105
0.11
0.12
0.13
0.145
0.165
0.15
0.14
0.13
0.125
0.13
0.13
0.14
0.14
0.145
0.165
0.17
0.16
0.16
0.165
0.16
0.185
0.18
0.195
0.2
0.21
0.205
0.2
0.2
0.2
0.2
0.215
0.225
0.25
0.26
0.27
0.255
0.255
0.26
0.26
0.245
0.26
0.27
0.265
0.27
0.255
0.265
0.26
0.245
0.24
0.235
0.24
0.255
0.235
0.24
0.24
0.22
0.2
0.18
0.165
0.15
0.155
0.155
0.15
0.135
0.12
0.09
0.085
0.07
0.05
0.04
0.045
0.045
0.04
0.05
0.045
0.03
0.01
-0.005
-0.015
-0.025
-0.015
-0.01
0
0.005
0.005
-0.02
-0.03
-0.045
-0.06
-0.04
-0.04
-0.02
-0.015
-0.015
-0.01
-0.02
-0.05
-0.055
-0.075
-0.06
-0.055
-0.035
-0.03
-0.03
-0.025
-0.04
-0.06
-0.055
-0.055
-0.065
-0.06
-0.05
-0.03
-0.02
-0.02
-0.03
-0.04
-0.05
-0.065
-0.07
-0.055
-0.035
-0.025
-0.02
-0.015
-0.03
-0.045
-0.045
-0.05
-0.04
-0.025
-0.015
-0.015
0
-0.01
-0.035
-0.055
-0.04
-0.065
-0.04
-0.05
-0.035
-0.01
0.005
-0.02
-0.04
-0.04
-0.04
-0.065
-0.045
-0.035
-0.025
-0.025
-0.01
-0.015
-0.035
-0.035
-0.045
-0.05
-0.05
-0.04
-0.04
-0.045
-0.025
-0.04
-0.045
-0.055
-0.07
-0.07
-0.06
-0.045
-0.035
-0.03
-0.025
-0.025
-0.035
-0.05
-0.075
-0.1
-0.07
-0.05
-0.05
-0.04
-0.035
-0.04
-0.05
-0.06
-0.075
-0.07
-0.05
-0.05
-0.05
-0.04
-0.035
-0.045
-0.06
-0.07
-0.075
-0.08
-0.075
-0.04
-0.045
-0.04
-0.035
-0.055
-0.055
-0.065
-0.075
-0.075
-0.06
-0.065
-0.06
-0.055
-0.045
-0.045
-0.06
-0.08
-0.07
-0.075
-0.06
-0.055
-0.065
-0.045
-0.045
-0.05
-0.065
-0.065
-0.075
-0.08
-0.065
-0.055
-0.05
-0.05
-0.04
-0.06
-0.065
-0.075
-0.085
-0.08
-0.065
-0.06
-0.055
-0.05
-0.035
-0.065
-0.07
-0.055
-0.085
-0.07
-0.065
-0.045
-0.06
-0.05
-0.045
-0.07
-0.08
-0.075
-0.085
-0.09
-0.07
-0.05
-0.055
-0.045
-0.04
-0.05
-0.075
-0.075
-0.09
-0.09
-0.075
-0.07
-0.06
-0.045
-0.05
-0.065
-0.08
-0.075
-0.075
-0.065
-0.065
-0.065
-0.065
-0.05
-0.065
-0.075
-0.075
-0.075
-0.085
-0.075
-0.06
-0.04
-0.04
-0.03
-0.03
-0.045
-0.055
-0.055
-0.05
-0.045
-0.04
-0.035
-0.015
0
-0.005
-0.015
-0.02
-0.02
-0.015
0
-0.01
0.005
0.01
0.01
-0.005
-0.01
-0.015
-0.015
-0.025
-0.02
-0.01
0.01
0
-0.005
-0.03
-0.045
-0.06
-0.065
-0.08
-0.08
-0.07
-0.065
-0.05
-0.045
-0.06
-0.065
-0.075
-0.09
-0.105
-0.085
-0.065
-0.065
-0.07
-0.055
-0.06
-0.075
-0.095
-0.105
-0.12
-0.11
-0.075
-0.08
-0.07
-0.06
-0.08
-0.095
-0.11
-0.1
-0.09
-0.095
-0.085
-0.075
-0.075
-0.065
-0.08
-0.1
-0.1
-0.1
-0.1
-0.09
-0.09
-0.08
-0.095
-0.09
-0.1
-0.105
-0.125
-0.145
-0.145
-0.115
-0.075
-0.02
0.035
0.09
0.12
0.18
0.245
0.325
0.425
0.555
0.64
0.65
0.645
0.595
0.52
0.425
0.335
0.245
0.13
0.02
-0.09
-0.165
-0.17
-0.145
-0.125
-0.125
-0.115
-0.105
-0.095
-0.07
-0.06
-0.04
-0.04
-0.035
-0.055
-0.07
-0.085
-0.085
-0.08
-0.065
-0.05
-0.035
-0.025
-0.025
-0.03
-0.025
-0.06
-0.075
-0.07
-0.06
-0.05
-0.05
-0.03
-0.03
-0.04
-0.05
-0.05
-0.06
-0.05
-0.045
-0.03
-0.015
-0.01
-0.03
-0.035
-0.035
-0.04
-0.04
-0.03
-0.015
-0.01
-0.005
0.01
0.005
-0.02
-0.03
-0.04
-0.045
-0.045
-0.02
-0.01
0.005
0.02
0.015
0
-0.005
-0.015
-0.01
0.005
0.015
0.02
0.03
0.05
0.035
0.02
0.025
0.03
0.03
0.05
0.06
0.08
0.085
0.11
0.1
0.08
0.075
0.07
0.08
0.095
0.115
0.125
0.15
0.16
0.16
0.16
0.145
0.145
0.135
0.16
0.175
0.185
0.19
0.195
0.19
0.185
0.175
0.17
0.165
0.18
0.175
0.175
0.17
0.175
0.155
0.145
0.13
0.115
0.105
0.11
0.115
0.11
0.11
0.105
0.08
0.065
0.045
0.015
0.01
0.015
0.015
0.015
0
0.015
0.015
-0.02
-0.035
-0.045
-0.04
-0.04
-0.035
-0.04
-0.025
-0.02
-0.045
-0.05
-0.065
-0.07
-0.065
-0.045
-0.045
-0.055
-0.045
-0.045
-0.055
-0.07
-0.08
-0.085
-0.085
-0.085
-0.06
-0.065
-0.045
-0.05
-0.06
-0.075
-0.09
-0.085
-0.07
-0.065
-0.06
-0.04
-0.045
-0.05
-0.055
-0.06
-0.07
-0.08
-0.075
-0.06
-0.065
-0.05
-0.03
-0.04
-0.055
-0.055
-0.055
-0.06
-0.06
-0.045
-0.025
-0.02
-0.01
-0.025
-0.055
-0.06
-0.065
-0.065
-0.055
-0.045
-0.035
-0.025
-0.025
-0.035
-0.05
-0.045
-0.05
-0.055
-0.05
-0.04
-0.025
-0.02
-0.015
-0.02
-0.035
-0.035
-0.045
-0.055
-0.045
-0.035
-0.035
-0.03
-0.025
-0.03
-0.045
-0.04
-0.05
-0.055
-0.06
-0.04
-0.03
-0.03
-0.03
-0.05
-0.055
-0.06
-0.06
-0.07
-0.06
-0.05
-0.045
-0.04
-0.03
-0.04
-0.06
-0.06
-0.065
-0.07
-0.065
-0.055
-0.045
-0.045
-0.045
-0.055
-0.05
-0.055
-0.07
-0.07
-0.065
-0.06
-0.045
-0.04
-0.05
-0.055
-0.05
-0.06
-0.07
-0.07
-0.06
-0.055
-0.055
-0.045
-0.055
-0.065
-0.07
-0.065
-0.075
-0.085
-0.07
-0.06
-0.05
-0.05
-0.045
-0.055
-0.065
-0.055
-0.065
-0.07
-0.055
-0.055
-0.06
-0.04
-0.03
-0.05
-0.065
-0.085
-0.065
-0.07
-0.06
-0.04
-0.045
-0.045
-0.04
-0.055
-0.065
-0.08
-0.09
-0.08
-0.065
-0.05
-0.05
-0.05
-0.055
-0.07
-0.06
-0.065
-0.065
-0.08
-0.065
-0.055
-0.045
-0.045
-0.045
-0.055
-0.065
-0.065
-0.075
-0.075
-0.065
-0.04
-0.04
-0.035
-0.04
-0.045
-0.06
-0.055
-0.075
-0.07
-0.055
-0.035
-0.045
-0.045
-0.055
-0.065
-0.07
-0.075
-0.09
-0.07
-0.055
-0.05
-0.04
-0.04
-0.04
-0.065
-0.06
-0.085
-0.075
-0.075
-0.05
-0.03
-0.01
0
-0.015
-0.025
-0.04
-0.05
-0.045
-0.035
-0.02
-0.01
0
0.02
-0.01
-0.02
-0.01
-0.01
-0.015
0
0.025
0.03
0.04
0.04
0.05
0.055
0.07
0.07
0.075
0.085
0.105
0.12
0.13
0.135
0.115
0.11
0.1
0.085
0.08
0.1
0.1
0.11
0.105
0.115
0.105
0.105
0.09
0.095
0.08
0.085
0.105
0.105
0.12
0.12
0.11
0.09
0.09
0.08
0.065
0.075
0.09
0.095
0.095
0.12
0.1
0.09
0.1
0.085
0.07
0.07
0.085
0.1
0.1
0.09
0.1
0.085
0.085
0.07
0.07
0.075
0.075
0.07
0.085
0.07
0.07
0.055
0.045
0.03
0.03
0.05
0.08
0.14
0.215
0.26
0.305
0.365
0.415
0.495
0.595
0.73
0.85
0.865
0.86
0.81
0.73
0.635
0.545
0.425
0.315
0.205
0.09
0.01
0.01
0.04
0.03
0.04
0.05
0.07
0.09
0.115
0.12
0.13
0.13
0.12
0.11
0.105
0.095
0.085
0.09
0.1
0.105
0.11
0.125
0.125
0.11
0.105
0.105
0.085
0.09
0.105
0.105
0.11
0.115
0.12
0.105
0.095
0.095
0.085
0.095
0.11
0.12
0.125
0.135
0.145
0.13
0.11
0.105
0.11
0.115
0.13
0.125
0.145
0.16
0.15
0.135
0.12
0.12
0.12
0.12
0.135
0.145
0.165
0.175
0.165
0.16
0.165
0.165
0.15
0.145
0.155
0.155
0.155
0.16
0.145
0.165
0.175
0.165
0.155
0.175
0.19
0.2
0.225
0.22
0.23
0.23
0.24
0.23
0.225
0.245
0.255
0.26
0.29
0.285
0.27
0.265
0.295
0.315
0.3
0.3
0.3
0.31
0.325
0.32
0.325
0.315
0.315
0.305
0.3
0.305
0.315
0.31
0.31
0.305
0.295
0.285
0.27
0.24
0.225
0.22
0.22
0.22
0.21
0.195
0.165
0.15
0.14
0.135
0.1
0.1
0.095
0.12
0.105
0.1
0.08
0.05
0.035
0.025
0.015
0.005
0.02
0.02
0.02
0.03
0.015
-0.01
-0.035
-0.03
-0.02
-0.015
-0.01
0
0.005
0.005
-0.02
-0.03
-0.045
-0.04
-0.035
-0.03
-0.03
-0.015
-0.015
-0.01
-0.035
-0.045
-0.045
-0.055
-0.055
-0.03
-0.025
-0.025
-0.03
-0.04
-0.055
-0.065
-0.07
-0.075
-0.07
-0.055
-0.035
-0.03
-0.025
-0.04
-0.055
-0.07
-0.09
-0.085
-0.065
-0.06
-0.045
-0.045
-0.03
-0.04
-0.055
-0.06
-0.06
-0.07
-0.055
-0.05
-0.035
-0.03
-0.025
-0.03
-0.045
-0.05
-0.06
-0.065
-0.055
-0.045
-0.035
-0.035
-0.03
-0.05
-0.05
-0.045
-0.05
-0.055
-0.04
-0.03
-0.045
-0.04
-0.055
-0.075
-0.095
-0.1
-0.095
-0.09
-0.08
-0.08
-0.05
-0.045
-0.05
-0.05
-0.07
-0.08
-0.085
-0.095
-0.075
-0.065
-0.05
-0.045
-0.05
-0.055
-0.075
-0.08
-0.09
-0.09
-0.08
-0.08
-0.075
-0.075
-0.06
-0.075
-0.09
-0.09
-0.085
-0.095
-0.095
-0.08
-0.085
-0.09
-0.08
-0.085
-0.1
-0.13
-0.115
-0.115
-0.095
-0.09
-0.09
-0.08
-0.08
-0.085
-0.08
-0.105
-0.115
-0.115
-0.11
-0.095
-0.09
-0.08
-0.08
-0.085
-0.095
-0.1
-0.115
-0.12
-0.11
-0.115
-0.095
-0.08
-0.08
-0.085
-0.1
-0.115
-0.105
-0.115
-0.11
-0.115
-0.1
-0.1
-0.095
-0.095
-0.11
-0.11
-0.12
-0.105
-0.085
-0.09
-0.08
-0.095
-0.095
-0.1
-0.125
-0.12
-0.125
-0.1
-0.09
-0.105
-0.105
-0.085
-0.08
-0.09
-0.11
-0.1
-0.105
-0.12
-0.1
-0.095
-0.085
-0.085
-0.085
-0.095
-0.11
-0.11
-0.115
-0.11
-0.075
-0.07
-0.065
-0.055
-0.045
-0.07
-0.08
-0.08
-0.08
-0.085
-0.08
-0.07
-0.07
-0.055
-0.045
-0.055
-0.065
-0.065
-0.065
-0.045
-0.05
-0.025
-0.04
-0.01
-0.035
-0.04
-0.05
-0.055
-0.065
-0.055
-0.045
-0.045
-0.05
-0.035
-0.075
-0.095
-0.095
-0.1
-0.115
-0.125
-0.11
-0.08
-0.105
-0.11
-0.115
-0.115
-0.11
-0.11
-0.13
-0.12
-0.1
-0.12
-0.095
-0.095
-0.11
-0.11
-0.115
-0.125
-0.135
-0.135
-0.115
-0.11
-0.115
-0.105
-0.125
-0.135
-0.13
-0.13
-0.135
-0.13
-0.11
-0.105
-0.1
-0.11
-0.115
-0.135
-0.135
-0.135
-0.135
-0.155
-0.145
-0.13
-0.13
-0.14
-0.16
-0.185
-0.175
-0.165
-0.125
-0.06
-0.005
0.045
0.105
0.18
0.245
0.33
0.435
0.515
0.555
0.555
0.525
0.48
0.415
0.36
0.255
0.135
-0.01
-0.115
-0.195
-0.215
-0.215
-0.19
-0.165
-0.16
-0.15
-0.125
-0.105
-0.11
-0.09
-0.09
-0.08
-0.08
-0.08
-0.085
-0.09
-0.105
-0.115
-0.115
-0.115
-0.095
-0.095
-0.095
-0.075
-0.085
-0.095
-0.095
-0.09
-0.105
-0.09
-0.065
-0.075
-0.075
-0.065
-0.06
-0.07
-0.09
-0.095
-0.1
-0.09
-0.065
-0.06
-0.055
-0.03
-0.055
-0.07
-0.07
-0.075
-0.07
-0.07
-0.06
-0.055
-0.05
-0.04
-0.055
-0.05
-0.045
-0.055
-0.06
-0.04
-0.03
-0.03
-0.02
-0.02
-0.035
-0.035
-0.035
-0.035
-0.04
-0.035
-0.005
0.02
0.02
0.02
0.01
0.015
0.01
0.01
0.015
0.02
0.025
0.02
0.035
0.055
0.065
0.055
0.06
0.06
0.07
0.1
0.115
0.115
0.105
0.125
0.125
0.115
0.105
0.115
0.11
0.125
0.125
0.13
0.145
0.15
0.135
0.13
0.13
0.115
0.11
0.13
0.135
0.135
0.13
0.13
0.115
0.085
0.075
0.065
0.06
0.055
0.05
0.03
0.04
0.03
0.02
-0.015
-0.025
-0.03
-0.03
-0.03
-0.03
-0.03
-0.02
-0.04
-0.05
-0.075
-0.085
-0.08
-0.08
-0.065
-0.07
-0.065
-0.055
-0.075
-0.09
-0.115
-0.1
-0.11
-0.115
-0.105
-0.095
-0.09
-0.075
-0.06
-0.095
-0.1
-0.125
-0.115
-0.115
-0.1
-0.1
-0.1
-0.09
-0.09
-0.1
-0.11
-0.105
-0.115
-0.105
-0.09
-0.08
-0.075
-0.075
-0.095
-0.1
-0.105
-0.12
-0.12
-0.115
-0.095
-0.095
-0.09
-0.07
-0.095
-0.095
-0.09
-0.105
-0.11
-0.09
-0.07
-0.07
-0.07
-0.07
-0.085
-0.1
-0.1
-0.1
-0.11
-0.11
-0.09
-0.09
-0.07
-0.07
-0.075
-0.095
-0.11
-0.1
-0.1
-0.095
-0.095
-0.08
-0.075
-0.05
-0.065
-0.085
-0.09
-0.11
-0.115
-0.1
-0.095
-0.085
-0.065
-0.06
-0.065
-0.095
-0.12
-0.1
-0.1
-0.105
-0.085
-0.075
-0.075
-0.07
-0.085
-0.1
-0.115
-0.12
-0.115
-0.1
-0.08
-0.09
-0.09
-0.07
-0.095
-0.115
-0.115
-0.115
-0.12
-0.115
-0.095
-0.1
-0.095
-0.075
-0.095
-0.11
-0.125
-0.12
-0.1
-0.115
-0.11
-0.1
-0.08
-0.095
-0.095
-0.11
-0.13
-0.12
-0.125
-0.12
-0.11
-0.105
-0.095
-0.1
-0.105
-0.12
-0.12
-0.125
-0.12
-0.105
-0.095
-0.095
-0.09
-0.1
-0.105
-0.115
-0.115
-0.14
-0.135
-0.12
-0.12
-0.11
-0.105
-0.095
-0.115
-0.13
-0.13
-0.115
-0.125
-0.105
-0.105
-0.095
-0.095
-0.11
-0.105
-0.105
-0.115
-0.135
-0.145
-0.115
-0.1
-0.11
-0.095
-0.095
-0.11
-0.115
-0.12
-0.13
-0.14
-0.125
-0.115
-0.1
-0.1
-0.11
-0.105
-0.105
-0.1
-0.125
-0.105
-0.08
-0.08
-0.06
-0.065
-0.065
-0.08
-0.095
-0.1
-0.11
-0.105
-0.075
-0.05
-0.05
-0.045
-0.05
-0.065
-0.07
-0.055
-0.065
-0.055
-0.06
-0.04
-0.035
-0.03
-0.045
-0.06
-0.065
-0.065
-0.075
-0.075
-0.075
-0.075
-0.05
-0.07
-0.095
-0.095
-0.11
-0.115
-0.135
-0.11
-0.105
-0.115
-0.105
-0.1
-0.105
-0.115
-0.135
-0.14
-0.13
-0.13
-0.12
-0.115
-0.1
-0.095
-0.105
-0.12
-0.12
-0.12
-0.15
-0.13
-0.12
-0.115
-0.135
-0.12
-0.11
-0.11
-0.115
-0.13
-0.135
-0.135
-0.125
-0.105
-0.11
-0.11
-0.135
-0.135
-0.15
-0.16
-0.16
-0.145
-0.15
-0.17
-0.15
-0.135
-0.115
-0.08
-0.04
0
0.03
0.095
0.155
0.24
0.345
0.415
0.5
0.485
0.465
0.395
0.35
0.285
0.24
0.175
0.085
-0.025
-0.135
-0.22
-0.225
-0.205
-0.18
-0.15
-0.135
-0.11
-0.095
-0.085
-0.075
-0.095
-0.105
-0.125
-0.12
-0.12
-0.11
-0.095
-0.08
-0.075
-0.085
-0.1
-0.12
-0.125
-0.11
-0.12
-0.115
-0.1
-0.09
-0.085
-0.1
-0.1
-0.09
-0.095
-0.085
-0.09
-0.09
-0.085
-0.065
-0.075
-0.08
-0.075
-0.08
-0.1
-0.09
-0.07
-0.055
-0.065
-0.065
-0.06
-0.035
-0.025
-0.015
0
0.015
0.04
0.04
0.075
0.085
0.085
0.09
0.095
0.07
0.08
0.1
0.1
0.12
0.135
0.145
0.125
0.135
0.13
0.115
0.135
0.145
0.18
0.19
0.175
0.185
0.19
0.18
0.185
0.18
0.185
0.195
0.215
0.21
0.22
0.25
0.255
0.25
0.26
0.245
0.26
0.26
0.285
0.275
0.305
0.305
0.295
0.29
0.27
0.275
0.28
0.285
0.295
0.32
0.29
0.32
0.305
0.3
0.28
0.26
0.27
0.26
0.27
0.27
0.265
0.265
0.24
0.215
0.225
0.21
0.18
0.175
0.17
0.17
0.185
0.16
0.145
0.125
0.115
0.1
0.11
0.105
0.1
0.13
0.11
0.105
0.085
0.07
0.065
0.065
0.06
0.075
0.075
0.07
0.065
0.065
0.06
0.045
0.035
0.035
0.02
0.035
0.05
0.05
0.07
0.07
0.05
0.05
0.04
0.03
0.035
0.05
0.05
0.07
0.08
0.055
0.045
0.04
0.03
0.04
0.02
0.04
0.05
0.05
0.06
0.045
0.035
0.035
0.025
0.025
0.03
0.04
0.05
0.055
0.065
0.05
0.045
0.03
0.02
0.015
0.01
0.015
0.03
0.04
0.05
0.04
0.025
0.02
0.005
0.01
0.01
0.03
0.035
0.045
0.035
0.035
0.015
0.01
0
-0.01
-0.005
0.015
0.015
0.01
0.025
0.015
0.005
-0.015
0.01
0.005
-0.005
0.005
0.01
0.02
0
0.01
-0.015
-0.04
-0.045
-0.05
-0.03
-0.015
-0.005
0.01
-0.03
0
-0.01
-0.01
-0.03
-0.025
-0.04
-0.035
-0.01
-0.005
-0.02
-0.03
-0.04
-0.03
-0.045
-0.06
-0.02
0
-0.025
-0.02
0.015
-0.035
-0.04
-0.06
-0.05
-0.035
-0.05
-0.035
-0.05
-0.04
-0.03
-0.03
-0.05
-0.045
-0.06
-0.08
-0.045
-0.04
-0.045
-0.04
-0.03
-0.065
-0.065
-0.055
-0.07
-0.075
-0.07
-0.055
-0.055
-0.06
-0.05
-0.065
-0.075
-0.075
-0.085
-0.095
-0.08
-0.07
-0.07
-0.065
-0.075
-0.075
-0.08
-0.075
-0.1
-0.085
-0.08
-0.075
-0.055
-0.06
-0.08
-0.09
-0.105
-0.11
-0.11
-0.1
-0.075
-0.065
-0.055
-0.05
-0.055
-0.075
-0.065
-0.06
-0.065
-0.055
-0.04
-0.045
-0.04
-0.045
-0.05
-0.07
-0.08
-0.08
-0.065
-0.025
-0.03
-0.03
-0.03
0
-0.01
-0.02
-0.035
-0.04
-0.045
-0.04
-0.025
-0.03
-0.03
-0.025
-0.005
-0.035
-0.045
-0.065
-0.1
-0.085
-0.08
-0.08
-0.08
-0.08
-0.09
-0.1
-0.115
-0.12
-0.135
-0.13
-0.105
-0.115
-0.1
-0.105
-0.095
-0.1
-0.12
-0.13
-0.135
-0.12
-0.115
-0.105
-0.105
-0.105
-0.12
-0.14
-0.135
-0.13
-0.145
-0.13
-0.11
-0.11
-0.13
-0.115
-0.11
-0.125
-0.14
-0.14
-0.16
-0.13
-0.125
-0.13
-0.15
-0.12
-0.145
-0.16
-0.175
-0.16
-0.195
-0.185
-0.14
-0.09
-0.045
0.01
0.05
0.07
0.12
0.19
0.28
0.39
0.505
0.52
0.51
0.47
0.385
0.33
0.25
0.155
0.06
-0.06
-0.135
-0.205
-0.22
-0.205
-0.21
-0.195
-0.165
-0.145
-0.13
-0.13
-0.11
-0.09
-0.095
-0.105
-0.115
-0.115
-0.115
-0.115
-0.11
-0.11
-0.08
-0.12
-0.1
-0.08
-0.11
-0.145
-0.125
-0.13
-0.115
-0.11
-0.08
-0.065
-0.07
-0.08
-0.095
-0.1
-0.095
-0.115
-0.11
-0.085
-0.09
-0.065
-0.04
-0.065
-0.045
-0.08
-0.065
-0.1
-0.105
-0.095
-0.08
-0.07
-0.06
-0.08
-0.08
-0.075
-0.055
-0.095
-0.075
-0.055
-0.035
-0.03
-0.03
-0.035
-0.045
-0.04
-0.045
-0.045
-0.045
-0.035
-0.015
0
0.005
0
-0.015
-0.02
-0.025
-0.015
0
-0.01
0.02
0.03
0.05
0.055
0.045
0.04
0.03
0.03
0.035
0.055
0.065
0.085
0.13
0.1
0.075
0.09
0.09
0.095
0.095
0.11
0.12
0.13
0.15
0.135
0.1
0.1
0.115
0.095
0.115
0.125
0.11
0.125
0.115
0.105
0.09
0.085
0.07
0.06
0.06
0.05
0.095
0.045
0.04
0.03
-0.005
-0.015
-0.01
-0.035
-0.04
-0.03
-0.04
-0.05
-0.04
-0.06
-0.1
-0.105
-0.105
-0.115
-0.095
-0.09
-0.065
-0.085
-0.09
-0.115
-0.135
-0.135
-0.115
-0.125
-0.125
-0.12
-0.11
-0.095
-0.1
-0.115
-0.125
-0.14
-0.145
-0.14
-0.12
-0.115
-0.105
-0.105
-0.1
-0.115
-0.12
-0.135
-0.14
-0.14
-0.125
-0.105
-0.11
-0.1
-0.105
-0.1
-0.105
-0.11
-0.125
-0.14
-0.125
-0.115
-0.135
-0.105
-0.11
-0.12
-0.125
-0.125
-0.125
-0.12
-0.125
-0.11
-0.095
-0.09
-0.095
-0.105
-0.11
-0.1
-0.12
-0.13
-0.125
-0.105
-0.105
-0.095
-0.105
-0.11
-0.1
-0.13
-0.135
-0.125
-0.11
-0.11
-0.095
-0.09
-0.08
-0.085
-0.095
-0.12
-0.12
-0.13
-0.115
-0.12
-0.1
-0.09
-0.095
-0.11
-0.12
-0.12
-0.12
-0.12
-0.11
-0.11
-0.1
-0.1
-0.11
-0.12
-0.125
-0.12
-0.13
-0.135
-0.125
-0.115
-0.105
-0.095
-0.125
-0.13
-0.135
-0.135
-0.145
-0.125
-0.115
-0.13
-0.115
-0.115
-0.11
-0.125
-0.125
-0.135
-0.13
-0.125
-0.125
-0.13
-0.125
-0.12
-0.14
-0.14
-0.14
-0.145
-0.16
-0.14
-0.13
-0.12
-0.115
-0.11
-0.13
-0.14
-0.14
-0.15
-0.155
-0.135
-0.125
-0.11
-0.1
-0.1
-0.13
-0.125
-0.14
-0.15
-0.15
-0.13
-0.12
-0.13
-0.105
-0.125
-0.14
-0.145
-0.135
-0.14
-0.16
-0.125
-0.13
-0.14
-0.135
-0.14
-0.15
-0.135
-0.145
-0.15
-0.15
-0.13
-0.12
-0.11
-0.1
-0.11
-0.105
-0.11
-0.105
-0.115
-0.11
-0.12
-0.1
-0.11
-0.085
-0.105
-0.1
-0.1
-0.095
-0.085
-0.085
-0.08
-0.06
-0.06
-0.045
-0.06
-0.07
-0.06
-0.07
-0.07
-0.065
-0.075
-0.085
-0.07
-0.09
-0.1
-0.1
-0.115
-0.125
-0.14
-0.13
-0.125
-0.125
-0.135
-0.125
-0.14
-0.13
-0.13
-0.145
-0.15
-0.135
-0.14
-0.14
-0.115
-0.13
-0.145
-0.15
-0.145
-0.16
-0.165
-0.145
-0.135
-0.13
-0.13
-0.14
-0.14
-0.15
-0.165
-0.16
-0.185
-0.15
-0.135
-0.13
-0.145
-0.135
-0.135
-0.16
-0.16
-0.17
-0.185
-0.17
-0.175
-0.165
-0.17
-0.165
-0.18
-0.195
-0.21
-0.19
-0.165
-0.11
-0.05
0
0.055
0.125
0.185
0.28
0.375
0.495
0.585
0.58
0.555
0.49
0.43
0.325
0.235
0.105
-0.01
-0.12
-0.24
-0.275
-0.26
-0.22
-0.195
-0.185
-0.15
-0.135
-0.16
-0.145
-0.14
-0.125
-0.115
-0.115
-0.11
-0.11
-0.135
-0.13
-0.14
-0.145
-0.15
-0.12
-0.12
-0.115
-0.105
-0.09
-0.115
-0.125
-0.125
-0.13
-0.125
-0.12
-0.095
-0.1
-0.1
-0.1
-0.11
-0.12
-0.12
-0.125
-0.1
-0.11
-0.09
-0.08
-0.08
-0.075
-0.08
-0.085
-0.1
-0.095
-0.1
-0.075
-0.075
-0.07
-0.065
-0.065
-0.08
-0.09
-0.095
-0.095
-0.075
-0.07
-0.06
-0.04
-0.035
-0.045
-0.065
-0.065
-0.055
-0.05
-0.045
-0.04
-0.025
0.005
0.005
0.015
0.005
-0.01
-0.01
-0.02
-0.005
0.005
0.03
0.025
0.04
0.065
0.06
0.055
0.055
0.045
0.06
0.07
0.075
0.095
0.12
0.115
0.125
0.12
0.12
0.115
0.11
0.125
0.15
0.14
0.145
0.145
0.13
0.11
0.095
0.095
0.095
0.12
0.12
0.125
0.125
0.105
0.095
0.07
0.06
0.045
0.04
0.04
0.04
0.015
0.02
0.015
-0.025
-0.055
-0.045
-0.05
-0.065
-0.065
-0.045
-0.055
-0.055
-0.07
-0.085
-0.105
-0.11
-0.11
-0.115
-0.11
-0.105
-0.11
-0.105
-0.1
-0.095
-0.13
-0.135
-0.14
-0.115
-0.125
-0.125
-0.095
-0.1
-0.125
-0.14
-0.135
-0.14
-0.145
-0.125
-0.115
-0.11
-0.12
-0.11
-0.125
-0.125
-0.125
-0.125
-0.135
-0.115
-0.12
-0.11
-0.1
-0.085
-0.105
-0.11
-0.125
-0.125
-0.125
-0.12
-0.095
-0.095
-0.09
-0.1
-0.105
-0.115
-0.115
-0.125
-0.13
-0.105
-0.1
-0.08
-0.09
-0.075
-0.1
-0.125
-0.12
-0.125
-0.13
-0.09
-0.095
-0.08
-0.07
-0.08
-0.09
-0.11
-0.115
-0.12
-0.11
-0.1
-0.1
-0.09
-0.08
-0.095
-0.105
-0.105
-0.125
-0.115
-0.11
-0.105
-0.1
-0.09
-0.095
-0.1
-0.115
-0.11
-0.105
-0.08
-0.075
-0.055
-0.045
-0.025
0
0
-0.005
-0.025
-0.01
-0.015
-0.025
0.005
0.015
0.02
0.035
0.035
0.015
0.005
-0.01
-0.01
0.015
0.03
0.035
0.035
0.04
0.02
0.01
0.005
0.005
0.01
0.01
0.025
0.03
0.045
0.055
0.05
0.03
0.01
0.01
0.005
0.005
0.025
0.04
0.05
0.035
0.025
0.02
0.01
0.015
0.015
0.015
0.03
0.02
0.035
0.04
